Time (s),T_min (C),T_max (C),T_ave (C),Thermal_Input_C
153.71,100,104.1,100.38,100
177.6936532,100,104.7561242,100.4759346,100.1683502
201.6773064,100,105.4122485,100.5718692,100.3367003
225.6609596,100,106.0683727,100.6678038,100.5050505
249.6446128,100,106.7244969,100.7637385,100.6734007
273.628266,100,107.3806211,100.8596731,100.8417508
297.6119192,100,108.018908,100.9581161,101.010101
321.5955724,100,108.5653927,101.0694687,101.1784512
345.5792256,100,109.1118774,101.1808214,101.3468013
369.5628788,100,109.658362,101.2921741,101.5151515
393.546532,100,110.2048467,101.4035268,101.6835017
417.5301852,100,110.7513314,101.5148794,101.8518519
441.5138384,100.0005203,111.2630704,101.6258977,102.020202
465.4974916,100.0021192,111.7027707,101.7362225,102.1885522
489.4811448,100.0037181,112.142471,101.8465473,102.3569024
513.464798,100.005317,112.5821713,101.9568721,102.5252525
537.4484512,100.0069159,113.0218716,102.0671969,102.6936027
561.4321044,100.0085148,113.4615719,102.1775217,102.8619529
585.4157576,100.0102437,113.9013128,102.2882851,103.030303
609.3994108,100.0136699,114.3415842,102.4047771,103.1986532
633.383064,100.0170962,114.7818555,102.5212692,103.3670034
657.3667172,100.0205224,115.2221269,102.6377612,103.5353535
681.3503704,100.0239486,115.6623982,102.7542532,103.7037037
705.3340236,100.0273749,116.1026696,102.8707453,103.8720539
729.3176768,100.0322431,116.5428074,102.9884122,104.040404
753.30133,100.0418365,116.9825077,103.1099294,104.2087542
777.2849832,100.05143,117.422208,103.2314466,104.3771044
801.2686364,100.0610235,117.8619083,103.3529638,104.5454545
825.2522896,100.0706169,118.3016086,103.4744809,104.7138047
849.2359428,100.0802104,118.741309,103.5959981,104.8821549
873.219596,100.0898038,119.1810093,103.7175153,105.0505051
897.2032492,100.1034257,119.5541714,103.8408311,105.2188552
921.1869024,100.1171316,119.9259446,103.9641844,105.3872054
945.1705556,100.1308375,120.2977177,104.0875377,105.5555556
969.1542088,100.1445434,120.6694909,104.210891,105.7239057
993.137862,100.1582494,121.0412641,104.3342443,105.8922559
1017.121515,100.1726883,121.4103452,104.4575964,106.0606061
1041.105168,100.1915326,121.7632475,104.5809409,106.2289562
1065.088822,100.2103769,122.1161498,104.7042854,106.3973064
1089.072475,100.2292212,122.4690521,104.8276299,106.5656566
1113.056128,100.2480655,122.8219545,104.9509744,106.7340067
1137.039781,100.2669098,123.1748568,105.0743189,106.9023569
1161.023434,100.2882999,123.5274104,105.1985701,107.0707071
1185.007088,100.3154814,123.8791706,105.324884,107.2390572
1208.990741,100.3426628,124.2309309,105.4511979,107.4074074
1232.974394,100.3698443,124.5826911,105.5775118,107.5757576
1256.958047,100.3970258,124.9344514,105.7038257,107.7441077
1280.9417,100.4242073,125.2862116,105.8301396,107.9124579
1304.925354,100.451663,125.6379427,105.9565644,108.0808081
1328.909007,100.4842122,125.9891319,106.0850483,108.2491582
1352.89266,100.5167615,126.3403211,106.2135321,108.4175084
1376.876313,100.5493107,126.6915103,106.342016,108.5858586
1400.859966,100.58186,127.0426995,106.4704998,108.7542088
1424.84362,100.6144092,127.3938887,106.5989837,108.9225589
1448.827273,100.6485455,127.7305018,106.7270036,109.0909091
1472.810926,100.6885182,128.0135089,106.8533175,109.2592593
1496.794579,100.728491,128.296516,106.9796315,109.4276094
1520.778232,100.7684637,128.5795231,107.1059454,109.5959596
1544.761886,100.8084365,128.8625302,107.2322593,109.7643098
1568.745539,100.8484092,129.1455374,107.3585732,109.9326599
1592.729192,100.888382,129.4285445,107.4848871,110.1010101
1616.712845,100.9343819,129.709579,107.6099955,110.2693603
1640.696498,100.9806361,129.9905304,107.7350532,110.4377104
1664.680152,101.0268903,130.2714818,107.8601108,110.6060606
1688.663805,101.0731445,130.5524331,107.9851684,110.7744108
1712.647458,101.1193987,130.8333845,108.110226,110.9427609
1736.631111,101.166281,131.1145452,108.235493,111.1111111
1760.614764,101.2176745,131.3972097,108.3622638,111.2794613
1784.598418,101.269068,131.6798742,108.4890345,111.4478114
1808.582071,101.3204616,131.9625387,108.6158052,111.6161616
1832.565724,101.3718551,132.2452032,108.742576,111.7845118
1856.549377,101.4232487,132.5278677,108.8693467,111.952862
1880.53303,101.4763993,132.8101742,108.9968984,112.1212121
1904.516684,101.53396,133.0915824,109.1264101,112.2895623
1928.500337,101.5915208,133.3729906,109.2559218,112.4579125
1952.48399,101.6490816,133.6543988,109.3854335,112.6262626
1976.467643,101.7066423,133.935807,109.5149453,112.7946128
2000.451296,101.7642031,134.2172152,109.644457,112.962963
2024.434949,101.8219424,134.4986094,109.7740422,113.1313131
2048.418603,101.8853277,134.7795608,109.9059523,113.2996633
2072.402256,101.9487131,135.0605121,110.0378624,113.4680135
2096.385909,102.0120985,135.3414635,110.1697725,113.6363636
2120.369562,102.0754838,135.6224149,110.3016826,113.8047138
2144.353215,102.1388692,135.9033662,110.4335927,113.973064
2168.336869,102.2032924,136.1844059,110.5656573,114.1414141
2192.320522,102.2720455,136.4658141,110.6983669,114.3097643
2216.304175,102.3407986,136.7472223,110.8310764,114.4781145
2240.287828,102.4095518,137.0286305,110.963786,114.6464646
2264.271481,102.4783049,137.3100387,111.0964955,114.8148148
2288.255135,102.5470581,137.5914469,111.2292051,114.983165
2312.238788,102.6158112,137.8728551,111.3619146,115.1515152
2336.222441,102.6875673,138.1538343,111.4970909,115.3198653
2360.206094,102.7595183,138.4347857,111.6324272,115.4882155
2384.189747,102.8314692,138.715737,111.7677636,115.6565657
2408.173401,102.9034202,138.9966884,111.9030999,115.8249158
2432.157054,102.9753712,139.2776398,112.0384362,115.993266
2456.140707,103.0478451,139.5585911,112.1739469,116.1616162
2480.12436,103.1249354,139.8395425,112.3109963,116.3299663
2504.108013,103.2020258,140.1204939,112.4480458,116.4983165
2528.091667,103.2791161,140.4014452,112.5850952,116.6666667
2552.07532,103.3562064,140.6823966,112.7221447,116.8350168
2576.058973,103.4332967,140.963348,112.8591941,117.003367
2600.042626,103.5115649,141.2444201,112.9972101,117.1717172
2624.026279,103.5931094,141.5258283,113.1379142,117.3400673
2648.009933,103.6746538,141.8072365,113.2786183,117.5084175
2671.993586,103.7561982,142.0886447,113.4193224,117.6767677
2695.977239,103.8377426,142.3700529,113.5600265,117.8451178
2719.960892,103.919287,142.6514611,113.7007306,118.013468
2743.944545,104.0008734,142.9328472,113.8414673,118.1818182
2767.928199,104.0865293,143.2120855,113.9853692,118.3501684
2791.911852,104.1721852,143.4913237,114.1292711,118.5185185
2815.895505,104.2578411,143.770562,114.273173,118.6868687
2839.879158,104.343497,144.0498002,114.4170749,118.8552189
2863.862811,104.4291529,144.3290384,114.5609769,119.023569
2887.846465,104.5154801,144.594001,114.7034966,119.1919192
2911.830118,104.6050191,144.790667,114.839404,119.3602694
2935.813771,104.6945581,144.9873329,114.9753114,119.5286195
2959.797424,104.7840971,145.1839989,115.1112187,119.6969697
2983.781077,104.873636,145.3806648,115.2471261,119.8653199
3007.764731,104.963175,145.5773308,115.3830335,120.03367
3031.748384,105.052714,145.7739967,115.5189408,120.2020202
3055.732037,105.1465544,145.96783,115.6543236,120.3703704
3079.71569,105.2407759,146.1614124,115.78966,120.5387205
3103.699343,105.3349974,146.3549947,115.9249963,120.7070707
3127.682997,105.4292189,146.548577,116.0603326,120.8754209
3151.66665,105.5234404,146.7421594,116.195669,121.043771
3175.650303,105.6178012,146.9357417,116.330866,121.2121212
3199.633956,105.7137358,147.1293241,116.4644892,121.3804714
3223.617609,105.8096704,147.3229064,116.5981124,121.5488215
3247.601263,105.9056051,147.5164888,116.7317356,121.7171717
3271.584916,106.0015397,147.7100711,116.8653588,121.8855219
3295.568569,106.0974743,147.9036534,116.998982,122.0538721
3319.552222,106.1945793,148.0972079,117.1327724,122.2222222
3343.535875,106.2953107,148.2906761,117.2670809,122.3905724
3367.519529,106.396042,148.4841442,117.4013894,122.5589226
3391.503182,106.4967734,148.6776123,117.5356978,122.7272727
3415.486835,106.5975047,148.8710805,117.6700063,122.8956229
3439.470488,106.6982361,149.0645486,117.8043147,123.0639731
3463.454141,106.7989674,149.2580167,117.9386232,123.2323232
3487.437795,106.9017334,149.4515979,118.073949,123.4006734
3511.421448,107.0045205,149.6451803,118.2092853,123.5690236
3535.405101,107.1073076,149.8387626,118.3446216,123.7373737
3559.388754,107.2100947,150.0323449,118.479958,123.9057239
3583.372407,107.3128817,150.2259273,118.6152943,124.0740741
3607.356061,107.4160867,150.4194922,118.7504739,124.2424242
3631.339714,107.5216147,150.6129604,118.8847824,124.4107744
3655.323367,107.6271428,150.8064285,119.0190909,124.5791246
3679.30702,107.7326709,150.9998966,119.1533993,124.7474747
3703.290673,107.838199,151.1933648,119.2877078,124.9158249
3727.274327,107.943727,151.3868329,119.4220162,125.0841751
3751.25798,108.0492551,151.580301,119.5563247,125.2525253
3775.241633,108.1569373,151.7738718,119.693095,125.4208754
3799.225286,108.2648638,151.9674541,119.8301445,125.5892256
3823.208939,108.3727902,152.1610364,119.9671939,125.7575758
3847.192593,108.4807167,152.3546188,120.1042434,125.9259259
3871.176246,108.5886431,152.5482011,120.2412928,126.0942761
3895.159899,108.6966738,152.7417835,120.378238,126.2626263
3919.143552,108.8063134,152.9353658,120.5135743,126.4309764
3943.127205,108.9159529,153.1289482,120.6489107,126.5993266
3967.110859,109.0255925,153.3225305,120.784247,126.7676768
3991.094512,109.1352321,153.5161128,120.9195833,126.9360269
4015.078165,109.2448716,153.7096952,121.0549196,127.1043771
4039.061818,109.3553793,153.903252,121.1907411,127.2727273
4063.045471,109.4689019,154.0967201,121.3282474,127.4410774
4087.029125,109.5824245,154.2901883,121.4657536,127.6094276
4111.012778,109.6959471,154.4836564,121.6032599,127.7777778
4134.996431,109.8094698,154.6771245,121.7407662,127.9461279
4158.980084,109.9229924,154.8705927,121.8782725,128.1144781
4182.963737,110.036515,155.0640608,122.0157788,128.2828283
4206.947391,110.1495948,155.2576397,122.1545028,128.4511785
4230.931044,110.2626606,155.451222,122.2932653,128.6195286
4254.914697,110.3757264,155.6448043,122.4320279,128.7878788
4278.89835,110.4887922,155.8383867,122.5707905,128.956229
4302.882003,110.601858,156.031969,122.709553,129.1245791
4326.865657,110.7154062,156.2257473,122.8483608,129.2929293
4350.84931,110.8321266,156.4208144,122.987466,129.4612795
4374.832963,110.9488471,156.6158814,123.1265712,129.6296296
4398.816616,111.0655675,156.8109485,123.2656764,129.7979798
4422.800269,111.182288,157.0060155,123.4047816,129.96633
4446.783923,111.2990084,157.2010826,123.5438868,130.1346801
4470.767576,111.4157289,157.3961496,123.6829919,130.3030303
4494.751229,111.5337525,157.5899135,123.8233001,130.4713805
4518.734882,111.6519576,157.7834958,123.9637757,130.6397306
4542.718535,111.7701628,157.9770782,124.1042514,130.8080808
4566.702189,111.8883679,158.1706605,124.2447271,130.976431
4590.685842,112.0065731,158.3642429,124.3852028,131.1447811
4614.669495,112.1247782,158.5578252,124.5256785,131.3131313
4638.653148,112.2429834,158.7514076,124.6661542,131.4814815
4662.636801,112.3611885,158.9449899,124.8066298,131.6498316
4686.620455,112.4793937,159.1385722,124.9471055,131.8181818
4710.604108,112.5975988,159.3321546,125.0875812,131.986532
4734.587761,112.715804,159.5257369,125.2280569,132.1548822
4758.571414,112.8343571,159.7196208,125.3679294,132.3232323
4782.555067,112.9542753,159.9146879,125.5054357,132.4915825
4806.538721,113.0741936,160.1097549,125.642942,132.6599327
4830.522374,113.1941119,160.304822,125.7804483,132.8282828
4854.506027,113.3140301,160.499889,125.9179546,132.996633
4878.48968,113.4339484,160.6949561,126.0554608,133.1649832
4902.473333,113.5538667,160.8900231,126.1929671,133.3333333
4926.456987,113.6754104,161.0836814,126.3316654,133.5016835
4950.44064,113.7970418,161.2772637,126.470428,133.6700337
4974.424293,113.9186732,161.4708461,126.6091906,133.8383838
4998.407946,114.0403046,161.6644284,126.7479531,134.006734
5022.391599,114.161936,161.8580108,126.8867157,134.1750842
5046.375253,114.2835546,162.0515804,127.0256948,134.3434343
5070.358906,114.4050718,162.2450485,127.1663989,134.5117845
5094.342559,114.526589,162.4385166,127.307103,134.6801347
5118.326212,114.6481061,162.6319848,127.4478071,134.8484848
5142.309865,114.7696233,162.8254529,127.5885112,135.016835
5166.293519,114.8911405,163.018921,127.7292153,135.1851852
5190.277172,115.0126577,163.2123892,127.8699194,135.3535354
5214.260825,115.1357414,163.4059552,128.0104277,135.5218855
5238.244478,115.2590859,163.5995376,128.1509034,135.6902357
5262.228131,115.3824304,163.7931199,128.2913791,135.8585859
5286.211785,115.5057749,163.9867023,128.4318547,136.026936
5310.195438,115.6291194,164.1802846,128.5723304,136.1952862
5334.179091,115.7524639,164.3738669,128.7128403,136.3636364
5358.162744,115.8758084,164.5674493,128.8550291,136.5319865
5382.146397,115.9991529,164.7610316,128.9972179,136.7003367
5406.130051,116.1224974,164.954614,129.1394067,136.8686869
5430.113704,116.2458419,165.1481963,129.2815955,137.037037
5454.097357,116.3691864,165.3417787,129.4237843,137.2053872
5478.08101,116.4927813,165.5353401,129.5662861,137.3737374
5502.064663,116.6174962,165.7288083,129.710188,137.5420875
5526.048316,116.7422112,165.9222764,129.8540899,137.7104377
5550.03197,116.8669262,166.1157446,129.9979918,137.8787879
5574.015623,116.9916412,166.3092127,130.1418937,138.047138
5597.999276,117.1163562,166.5026808,130.2857957,138.2154882
5621.982929,117.2410712,166.696149,130.4296976,138.3838384
5645.966582,117.3676948,166.8897231,130.5735995,138.5521886
5669.950236,117.4944655,167.0833055,130.7175014,138.7205387
5693.933889,117.6212363,167.2768878,130.8614033,138.8888889
5717.917542,117.748007,167.4704702,131.0053053,139.0572391
5741.901195,117.8747777,167.6640525,131.1492072,139.2255892
5765.884848,118.0015069,167.8576244,131.2932547,139.3939394
5789.868502,118.1278208,168.0510926,131.4387556,139.5622896
5813.852155,118.2541347,168.2445607,131.5842564,139.7306397
5837.835808,118.3804486,168.4380289,131.7297572,139.8989899
5861.819461,118.5067625,168.631497,131.8752581,140.0673401
5885.803114,118.6330764,168.8249651,132.0207589,140.2356902
5909.786768,118.7593903,169.0184333,132.1662597,140.4040404
5933.770421,118.8875201,169.211997,132.3132897,140.5723906
5957.754074,119.016004,169.4055793,132.4606179,140.7407407
5981.737727,119.1444878,169.5991617,132.607946,140.9090909
6005.72138,119.2729717,169.792744,132.7552742,141.0774411
6029.705034,119.4014555,169.9863263,132.9026023,141.2457912
6053.688687,119.5299394,170.1799087,133.0499305,141.4141414
6077.67234,119.6601356,170.3752033,133.1955464,141.5824916
6101.655993,119.7903325,170.5704988,133.3411614,141.7508418
6125.639646,119.9205295,170.7657943,133.4867764,141.9191919
6149.6233,120.0507265,170.9610897,133.6323915,142.0875421
6173.606953,120.1809235,171.1563852,133.7780065,142.2558923
6197.590606,120.3110093,171.3513842,133.9241218,142.4242424
6221.574259,120.440521,171.5448524,134.0728204,142.5925926
6245.557912,120.5700327,171.7383205,134.2215191,142.7609428
6269.541566,120.6995445,171.9317886,134.3702177,142.9292929
6293.525219,120.8290562,172.1252568,134.5189164,143.0976431
6317.508872,120.9585679,172.3187249,134.667615,143.2659933
6341.492525,121.0880796,172.512193,134.8163137,143.4343434
6365.476178,121.219769,172.7057649,134.9653234,143.6026936
6389.459832,121.3516791,172.8993472,135.1143647,143.7710438
6413.443485,121.4835892,173.0929296,135.2634059,143.9393939
6437.427138,121.6154993,173.2865119,135.4124472,144.1077441
6461.410791,121.7474094,173.4800942,135.5614885,144.2760943
6485.394444,121.8793759,173.6736685,135.7106185,144.4444444
6509.378098,122.0120855,173.8671367,135.8609161,144.6127946
6533.361751,122.144795,174.0606048,136.0112136,144.7811448
6557.345404,122.2775046,174.2540729,136.1615112,144.9494949
6581.329057,122.4102141,174.4475411,136.3118088,145.1178451
6605.31271,122.5429237,174.6410092,136.4621063,145.2861953
6629.296364,122.6756332,174.8344773,136.6124039,145.4545455
6653.280017,122.8090887,175.0280387,136.7630744,145.6228956
6677.26367,122.9427119,175.2216211,136.9138288,145.7912458
6701.247323,123.0763351,175.4152034,137.0645832,145.959596
6725.230976,123.2099583,175.6087857,137.2153376,146.1279461
6749.21463,123.3435815,175.8023681,137.366092,146.2962963
6773.198283,123.4772047,175.9959504,137.5168463,146.4646465
6797.181936,123.6108279,176.1895328,137.6676007,146.6329966
6821.165589,123.7444511,176.3831151,137.8183551,146.8013468
6845.149242,123.8780744,176.5766975,137.9691095,146.969697
6869.132896,124.0116976,176.7702798,138.1198639,147.1380471
6893.116549,124.1453208,176.9638621,138.2706183,147.3063973
6917.100202,124.2792678,177.1574283,138.4215346,147.4747475
6941.083855,124.4151752,177.3508964,138.5734311,147.6430976
6965.067508,124.5510825,177.5443646,138.7253276,147.8114478
6989.051162,124.6869899,177.7378327,138.877224,147.979798
7013.034815,124.8228973,177.9313008,139.0291205,148.1481481
7037.018468,124.9588047,178.124769,139.181017,148.3164983
7061.002121,125.094712,178.3182371,139.3329134,148.4848485
7084.985774,125.231633,178.5102862,139.4853167,148.6531987
7108.969428,125.3686824,178.7021554,139.6377842,148.8215488
7132.953081,125.5057319,178.8940246,139.7902517,148.989899
7156.936734,125.6427813,179.0858939,139.9427192,149.1582492
7180.920387,125.7798308,179.2777631,140.0951867,149.3265993
7204.90404,125.9169032,179.4652175,140.2473045,149.4949495
7228.887694,126.0544094,179.5691467,140.3928053,149.6632997
7252.871347,126.1919157,179.6730758,140.5383062,149.8316498
7276.855,126.329422,179.777005,140.683807,150
7300.838653,126.4669283,179.8809342,140.8293078,150.1683502
7324.822306,126.6044346,179.9848633,140.9748087,150.3367003
7348.80596,126.7419408,180.0887925,141.1203095,150.5050505
7372.789613,126.880447,180.1890855,141.2618106,150.6734007
7396.773266,127.0192096,180.2884464,141.4022863,150.8417508
7420.756919,127.1579722,180.3878072,141.542762,151.010101
7444.740572,127.2967347,180.4871681,141.6832376,151.1784512
7468.724226,127.4354973,180.5865289,141.8237133,151.3468013
7492.707879,127.5742599,180.6858898,141.964189,151.5151515
7516.691532,127.7130224,180.7868929,142.1030224,151.6835017
7540.675185,127.851785,180.8879669,142.241785,151.8518519
7564.658838,127.9905476,180.9890408,142.3805476,152.020202
7588.642492,128.1293101,181.0901148,142.5193101,152.1885522
7612.626145,128.2680727,181.1911888,142.6580727,152.3569024
7636.609798,128.4070708,181.2922212,142.7964889,152.5252525
7660.593451,128.5477749,181.3929525,142.9323962,152.6936027
7684.577104,128.688479,181.4936838,143.0683036,152.8619529
7708.560758,128.8291831,181.5944152,143.204211,153.030303
7732.544411,128.9698872,181.6951465,143.3401183,153.1986532
7756.528064,129.1105913,181.7958779,143.4760257,153.3670034
7780.511717,129.2512954,181.8966092,143.6119331,153.5353535
7804.49537,129.3932868,181.9976376,143.7473453,153.7037037
7828.479024,129.5354756,182.0987116,143.8826816,153.8720539
7852.462677,129.6776644,182.1997856,144.018018,154.040404
7876.44633,129.8198532,182.3008595,144.1533543,154.2087542
7900.429983,129.962042,182.4019335,144.2886906,154.3771044
7924.413636,130.1041867,182.5029973,144.4239964,154.5454545
7948.39729,130.2448908,182.6037286,144.5583048,154.7138047
7972.380943,130.3855949,182.70446,144.6926133,154.8821549
7996.364596,130.526299,182.8051913,144.8269217,155.0505051
8020.348249,130.6670031,182.9059226,144.9612302,155.2188552
8044.331902,130.8077072,183.006654,145.0955387,155.3872054
8068.315556,130.9484113,183.1073853,145.2298471,155.5555556
8092.299209,131.0902667,183.2070539,145.3636242,155.7239057
8116.282862,131.2324555,183.3064147,145.4972474,155.8922559
8140.266515,131.3746443,183.4057756,145.6308706,156.0606061
8164.250168,131.5168331,183.5051364,145.7644938,156.2289562
8188.233822,131.6590219,183.6044973,145.898117,156.3973064
8212.217475,131.8012107,183.7038581,146.0317402,156.5656566
