Time (s),T_min (C),T_max (C),T_ave (C),Thermal_Input_C
153.91,180,181.03,180.09,180
177.8933165,180,181.1927439,180.1139833,180.1683502
201.876633,180,181.3554879,180.1379666,180.3367003
225.8599495,180,181.5182318,180.1619499,180.5050505
249.843266,180,181.6809757,180.1859333,180.6734007
273.8265825,180,181.8437197,180.2099166,180.8417508
297.809899,180,182.0067422,180.2347356,181.010101
321.7932155,180,182.1711992,180.2638582,181.1784512
345.776532,180,182.3356562,180.2929808,181.3468013
369.7598485,180,182.5001132,180.3221034,181.5151515
393.743165,180,182.6645703,180.351226,181.6835017
417.7264815,180,182.8290273,180.3803486,181.8518519
441.709798,180,182.9935586,180.4114397,182.020202
465.6931145,180,183.1582441,180.4466152,182.1885522
489.676431,180,183.3229295,180.4817908,182.3569024
513.6597475,180,183.4876149,180.5169663,182.5252525
537.643064,180,183.6523004,180.5521418,182.6936027
561.6263805,180,183.8169858,180.5873174,182.8619529
585.609697,180.0001214,183.9816551,180.622671,183.030303
609.5930135,180.0018345,184.1461121,180.660359,183.1986532
633.57633,180.0035476,184.3105691,180.6980471,183.3670034
657.5596465,180.0052607,184.4750261,180.7357352,183.5353535
681.542963,180.0069738,184.6394832,180.7734232,183.7037037
705.5262795,180.0086869,184.8039402,180.8111113,183.8720539
729.509596,180.0103733,184.9688239,180.8493327,184.040404
753.4929125,180.0119722,185.1351082,180.8893049,184.2087542
777.476229,180.0135711,185.3013925,180.929277,184.3771044
801.4595455,180.01517,185.4676768,180.9692492,184.5454545
825.442862,180.0167689,185.6339612,181.0092214,184.7138047
849.4261785,180.0183677,185.8002455,181.0491936,184.8821549
873.4094949,180.0199666,185.9665298,181.0891658,185.0505051
897.3928114,180.0233549,186.1310365,181.1336141,185.2188552
921.3761279,180.0267814,186.2955053,181.1781577,185.3872054
945.3594444,180.0302078,186.459974,181.2227013,185.5555556
969.3427609,180.0336342,186.6244428,181.2672449,185.7239057
993.3260774,180.0370607,186.7889116,181.3117886,185.8922559
1017.309394,180.0407306,186.9533787,181.3565753,186.0606061
1041.29271,180.0458699,187.1178357,181.4028288,186.2289562
1065.276027,180.0510091,187.2822928,181.4490823,186.3973064
1089.259343,180.0561484,187.4467498,181.4953359,186.5656566
1113.24266,180.0612877,187.6112068,181.5415894,186.7340067
1137.225976,180.066427,187.7756638,181.587843,186.9023569
1161.209293,180.0719491,187.9401905,181.6346186,187.0707071
1185.192609,180.0783447,188.1048759,181.6825852,187.2390572
1209.175926,180.0847402,188.2695614,181.7305519,187.4074074
1233.159242,180.0911358,188.4342468,181.7785185,187.5757576
1257.142559,180.0975313,188.5989322,181.8264851,187.7441077
1281.125875,180.1039269,188.7636177,181.8744518,187.9124579
1305.109192,180.1104319,188.928378,181.9225911,188.0808081
1329.092508,180.1189973,189.0945481,181.9739839,188.2491582
1353.075825,180.1275628,189.2607182,182.0253768,188.4175084
1377.059141,180.1361283,189.4268883,182.0767696,188.5858586
1401.042458,180.1446937,189.5930585,182.1281624,188.7542088
1425.025774,180.1532592,189.7592286,182.1795552,188.9225589
1449.009091,180.1627248,189.9250824,182.23124,189.0909091
1472.992407,180.175516,190.0897679,182.2840033,189.2592593
1496.975724,180.1883071,190.2544533,182.3367666,189.4276094
1520.95904,180.2010982,190.4191387,182.3895299,189.5959596
1544.942357,180.2138893,190.5838242,182.4422932,189.7643098
1568.925673,180.2266804,190.7485096,182.4950565,189.9326599
1592.90899,180.2394715,190.9131951,182.5478198,190.1010101
1616.892306,180.2531385,191.0776615,182.6041962,190.2693603
1640.875623,180.2668432,191.2421186,182.6607283,190.4377104
1664.858939,180.280548,191.4065756,182.7172604,190.6060606
1688.842256,180.2942527,191.5710326,182.7737925,190.7744108
1712.825572,180.3079575,191.7354896,182.8303246,190.9427609
1736.808889,180.32187,191.9001544,182.8870644,191.1111111
1760.792205,180.3372878,192.0663246,182.9453096,191.2794613
1784.775522,180.3527057,192.2324947,183.0035548,191.4478114
1808.758838,180.3681235,192.3986648,183.0618,191.6161616
1832.742155,180.3835414,192.5648349,183.1200452,191.7845118
1856.725471,180.3989592,192.7310051,183.1782904,191.952862
1880.708788,180.4149931,192.8967537,183.236795,192.1212121
1904.692104,180.4325809,193.0614391,183.2959539,192.2895623
1928.675421,180.4501686,193.2261246,183.3551127,192.4579125
1952.658737,180.4677564,193.39081,183.4142716,192.6262626
1976.642054,180.4853442,193.5554954,183.4734304,192.7946128
2000.62537,180.5029319,193.7201809,183.5325892,192.962963
2024.608687,180.5206581,193.8849102,183.5918223,193.1313131
2048.592003,180.5429283,194.0510803,183.6534937,193.2996633
2072.57532,180.5651985,194.2172504,183.7151651,193.4680135
2096.558636,180.5874687,194.3834206,183.7768365,193.6363636
2120.541953,180.609739,194.5495907,183.8385079,193.8047138
2144.525269,180.6320092,194.7157608,183.9001793,193.973064
2168.508586,180.6543013,194.8816456,183.9622896,194.1414141
2192.491902,180.6766858,195.0463311,184.0262451,194.3097643
2216.475219,180.6990702,195.2110165,184.0902006,194.4781145
2240.458535,180.7214546,195.3757019,184.1541561,194.6464646
2264.441852,180.7438391,195.5403874,184.2181116,194.8148148
2288.425168,180.7662235,195.7050728,184.2820671,194.983165
2312.408485,180.7886079,195.8697583,184.3460226,195.1515152
2336.391801,180.8140984,196.0358361,184.4110492,195.3198653
2360.375118,180.8397948,196.2020062,184.4761467,195.4882155
2384.358434,180.8654912,196.3681763,184.5412443,195.6565657
2408.341751,180.8911876,196.5343464,184.6063419,195.8249158
2432.325067,180.916884,196.7005165,184.6714395,195.993266
2456.308384,180.9429245,196.8665146,184.7367091,196.1616162
2480.2917,180.9720471,197.0309717,184.8035197,196.3299663
2504.275017,181.0011697,197.1954287,184.8703304,196.4983165
2528.258333,181.0302923,197.3598857,184.9371411,196.6666667
2552.24165,181.0594149,197.5243427,185.0039517,196.8350168
2576.224966,181.0885375,197.6887998,185.0707624,197.003367
2600.208283,181.1179905,197.8533169,185.1380837,197.1717172
2624.191599,181.1483694,198.0180023,185.2068359,197.3400673
2648.174916,181.1787482,198.1826878,185.2755881,197.5084175
2672.158232,181.2091271,198.3473732,185.3443403,197.6767677
2696.141549,181.239506,198.5120586,185.4130924,197.8451178
2720.124865,181.2698848,198.6767441,185.4818446,198.013468
2744.108182,181.3002825,198.8414424,185.5506097,198.1818182
2768.091498,181.3328313,199.0076125,185.6208465,198.3501684
2792.074815,181.3653801,199.1737826,185.6910834,198.5185185
2816.058131,181.3979289,199.3399528,185.7613202,198.6868687
2840.041448,181.4304777,199.5061229,185.8315571,198.8552189
2864.024764,181.4630265,199.672293,185.901794,199.023569
2888.008081,181.4960252,199.8382088,185.9725981,199.1919192
2911.991397,181.5312007,200.0028943,186.046147,199.3602694
2935.974714,181.5663762,200.1675797,186.1196958,199.5286195
2959.95803,181.6015518,200.3322651,186.1932446,199.6969697
2983.941347,181.6367273,200.4969506,186.2667935,199.8653199
3007.924663,181.6719028,200.661636,186.3403423,200.03367
3031.90798,181.7070784,200.8263215,186.4138911,200.2020202
3055.891296,181.7445578,200.9923683,186.4875447,200.3703704
3079.874613,181.7822458,201.1585384,186.5612077,200.5387205
3103.857929,181.8199339,201.3247085,186.6348708,200.7070707
3127.841246,181.857622,201.4908786,186.7085338,200.8754209
3151.824562,181.89531,201.6570488,186.7821969,201.043771
3175.807879,181.9331344,201.8232189,186.8559962,201.2121212
3199.791195,181.9725355,201.989389,186.9313723,201.3804714
3223.774512,182.0119367,202.1555591,187.0067485,201.5488215
3247.757828,182.0513379,202.3217292,187.0821246,201.7171717
3271.741145,182.090739,202.4878994,187.1575007,201.8855219
3295.724461,182.1301402,202.6540695,187.2328769,202.0538721
3319.707778,182.170454,202.8198801,187.3085849,202.2222222
3343.691094,182.213624,202.9845655,187.3853315,202.3905724
3367.674411,182.2567939,203.149251,187.4620781,202.5589226
3391.657727,182.2999639,203.3139364,187.5388247,202.7272727
3415.641044,182.3431339,203.4786218,187.6155713,202.8956229
3439.62436,182.3863038,203.6433073,187.692318,203.0639731
3463.607677,182.4294738,203.8079927,187.7690646,203.2323232
3487.590993,182.4723053,203.9741447,187.8478418,203.4006734
3511.57431,182.5151327,204.1403149,187.9266442,203.5690236
3535.557626,182.55796,204.306485,188.0054465,203.7373737
3559.540943,182.6007874,204.4726551,188.0842488,203.9057239
3583.524259,182.6436147,204.6388252,188.1630511,204.0740741
3607.507576,182.6869746,204.804772,188.2422658,204.2424242
3631.490892,182.7333424,204.9694575,188.323809,204.4107744
3655.474209,182.7797101,205.1341429,188.4053523,204.5791246
3679.457525,182.8260779,205.2988283,188.4868956,204.7474747
3703.440842,182.8724456,205.4635138,188.5684389,204.9158249
3727.424158,182.9188134,205.6281992,188.6499821,205.0841751
3751.407475,182.9651811,205.7928847,188.7315254,205.2525253
3775.390791,183.0145166,205.9589005,188.8121477,205.4208754
3799.374108,183.0641964,206.1250706,188.8926631,205.5892256
3823.357424,183.1138761,206.2912407,188.9731785,205.7575758
3847.340741,183.1635558,206.4574108,189.0536939,205.9259259
3871.324057,183.2132355,206.623581,189.1342093,206.0942761
3895.307374,183.2629153,206.7896506,189.2149258,206.2626263
3919.29069,183.312595,206.9541076,189.2988674,206.4309764
3943.274007,183.3622747,207.1185646,189.382809,206.5993266
3967.257323,183.4119545,207.2830216,189.4667506,206.7676768
3991.24064,183.4616342,207.4474787,189.5506922,206.9360269
4015.223956,183.5113139,207.6119357,189.6346338,207.1043771
4039.207273,183.561676,207.7767971,189.7187524,207.2727273
4063.190589,183.6144393,207.9430814,189.8034934,207.4410774
4087.173906,183.6672026,208.1093657,189.8882345,207.6094276
4111.157222,183.7199659,208.2756501,189.9729755,207.7777778
4135.140539,183.7727292,208.4419344,190.0577166,207.9461279
4159.123855,183.8254925,208.6082187,190.1424576,208.1144781
4183.107172,183.8782558,208.7745031,190.2271987,208.2828283
4207.090488,183.9330068,208.940677,190.3128232,208.4511785
4231.073805,183.9878258,209.1068471,190.3984779,208.6195286
4255.057121,184.0426448,209.2730172,190.4841326,208.7878788
4279.040438,184.0974639,209.4391873,190.5697873,208.956229
4303.023754,184.1522829,209.6053574,190.655442,209.1245791
4327.007071,184.2072498,209.7713352,190.7413926,209.2929293
4350.990387,184.2632109,209.9360207,190.8293314,209.4612795
4374.973704,184.319172,210.1007061,190.9172702,209.6296296
4398.95702,184.375133,210.2653915,191.0052091,209.7979798
4422.940337,184.4310941,210.430077,191.0931479,209.96633
4446.923653,184.4870552,210.5947624,191.1810867,210.1346801
4470.90697,184.5430163,210.7594479,191.2690256,210.3030303
4494.890286,184.6009764,210.9254327,191.3579639,210.4713805
4518.873603,184.6592216,211.0916028,191.4470448,210.6397306
4542.856919,184.7174668,211.2577729,191.5361257,210.8080808
4566.840236,184.775712,211.4239431,191.6252066,210.976431
4590.823552,184.8339572,211.5901132,191.7142875,211.1447811
4614.806869,184.8922672,211.7562185,191.8034331,211.3131313
4638.790185,184.9522255,211.9206756,191.8942271,211.4814815
4662.773502,185.0121838,212.0851326,191.9850211,211.6498316
4686.756818,185.072142,212.2495896,192.0758151,211.8181818
4710.740135,185.1321003,212.4140466,192.1666091,211.986532
4734.723451,185.1920586,212.5785037,192.2574031,212.1548822
4758.706768,185.2524976,212.7433269,192.3485862,212.3232323
4782.690084,185.3148542,212.9096113,192.4413217,212.4915825
4806.673401,185.3772108,213.0758956,192.5340571,212.6599327
4830.656717,185.4395675,213.2421799,192.6267926,212.8282828
4854.640034,185.5019241,213.4084642,192.7195281,212.996633
4878.62335,185.5642807,213.5747486,192.8122636,213.1649832
4902.606667,185.6266373,213.7410329,192.9049991,213.3333333
4926.589983,185.6915871,213.9072092,192.9975185,213.5016835
4950.5733,185.7566847,214.0733793,193.0900256,213.6700337
4974.556616,185.8217822,214.2395494,193.1825327,213.8383838
4998.539933,185.8868798,214.4057195,193.2750397,214.006734
5022.523249,185.9519774,214.5718897,193.3675468,214.1750842
5046.506566,186.0171246,214.7378984,193.4602525,214.3434343
5070.489882,186.082679,214.9025839,193.5545869,214.5117845
5094.473199,186.1482334,215.0672693,193.6489212,214.6801347
5118.456515,186.2137878,215.2319547,193.7432556,214.8484848
5142.439832,186.2793422,215.3966402,193.83759,215.016835
5166.423148,186.3448966,215.5613256,193.9319244,215.1851852
5190.406465,186.410451,215.7260111,194.0262588,215.3535354
5214.389781,186.4770787,215.8919649,194.1219591,215.5218855
5238.373098,186.5438893,216.058135,194.2178924,215.6902357
5262.356414,186.6107,216.2243052,194.3138257,215.8585859
5286.339731,186.6775107,216.3904753,194.4097589,216.026936
5310.323047,186.7443213,216.5566454,194.5056922,216.1952862
5334.306364,186.8111901,216.7228155,194.6016255,216.3636364
5358.28968,186.8814269,216.8889856,194.6975587,216.5319865
5382.272997,186.9516638,217.0551558,194.793492,216.7003367
5406.256313,187.0219006,217.2213259,194.8894253,216.8686869
5430.23963,187.0921375,217.387496,194.9853585,217.037037
5454.222946,187.1623743,217.5536661,195.0812918,217.2053872
5478.206263,187.2326317,217.7195697,195.1777992,217.3737374
5502.189579,187.3029828,217.8842551,195.2769303,217.5420875
5526.172896,187.3733338,218.0489405,195.3760613,217.7104377
5550.156212,187.4436849,218.213626,195.4751923,217.8787879
5574.139529,187.514036,218.3783114,195.5743234,218.047138
5598.122845,187.584387,218.5429969,195.6734544,218.2154882
5622.106162,187.6547381,218.7076823,195.7725855,218.3838384
5646.089478,187.7281534,218.8737414,195.8719278,218.5521886
5670.072795,187.8018164,219.0399115,195.9712873,218.7205387
5694.056111,187.8754795,219.2060816,196.0706467,218.8888889
5718.039428,187.9491425,219.3722517,196.1700062,219.0572391
5742.022744,188.0228056,219.5384219,196.2693657,219.2255892
5766.006061,188.0964586,219.704602,196.3687051,219.3939394
5789.989377,188.1700074,219.8708863,196.4678361,219.5622896
5813.972694,188.2435563,220.0371707,196.5669671,219.7306397
5837.95601,188.3171051,220.203455,196.6660982,219.8989899
5861.939327,188.3906539,220.3697393,196.7652292,220.0673401
5885.922643,188.4642028,220.5360237,196.8643603,220.2356902
5909.90596,188.5377516,220.702308,196.9634913,220.4040404
5933.889276,188.6128234,220.8684971,197.0656683,220.5723906
5957.872593,188.6881996,221.0346672,197.168454,220.7407407
5981.855909,188.7635757,221.2008374,197.2712396,220.9090909
6005.839226,188.8389519,221.3670075,197.3740253,221.0774411
6029.822542,188.914328,221.5331776,197.4768109,221.2457912
6053.805859,188.9897041,221.6993477,197.5795965,221.4141414
6077.789175,189.068493,221.8638115,197.6823822,221.5824916
6101.772492,189.1472953,222.0282685,197.7851678,221.7508418
6125.755808,189.2260977,222.1927255,197.8879535,221.9191919
6149.739125,189.3049,222.3571826,197.9907391,222.0875421
6173.722441,189.3837023,222.5216396,198.0935247,222.2558923
6197.705758,189.4624321,222.6863866,198.1964916,222.4242424
6221.689074,189.5407776,222.8526709,198.3004193,222.5925926
6245.672391,189.6191231,223.0189552,198.404347,222.7609428
6269.655707,189.6974686,223.1852396,198.5082747,222.9292929
6293.639024,189.7758141,223.3515239,198.6122024,223.0976431
6317.62234,189.8541596,223.5178082,198.7161301,223.2659933
6341.605657,189.9325051,223.6840926,198.8200578,223.4343434
6365.588973,190.012813,223.8502736,198.924502,223.6026936
6389.57229,190.0933284,224.0164437,199.0290007,223.7710438
6413.555606,190.1738438,224.1826138,199.1334994,223.9393939
6437.538923,190.2543592,224.348784,199.2379982,224.1077441
6461.522239,190.3348747,224.5149541,199.3424969,224.2760943
6485.505556,190.4154589,224.6811319,199.4468504,224.4444444
6509.488872,190.4970022,224.8474162,199.5491792,224.6127946
6533.472189,190.5785454,225.0137005,199.651508,224.7811448
6557.455505,190.6600887,225.1799848,199.7538368,224.9494949
6581.438822,190.741632,225.3462692,199.8561656,225.1178451
6605.422138,190.8231753,225.5125535,199.9584945,225.2861953
6629.405455,190.9047185,225.6788378,200.0608233,225.4545455
6653.388771,190.9868186,225.8450293,200.1649154,225.6228956
6677.372088,191.0690472,226.0111995,200.2694141,225.7912458
6701.355404,191.1512757,226.1773696,200.3739128,225.959596
6725.338721,191.2335042,226.3435397,200.4784116,226.1279461
6749.322037,191.3157327,226.5097098,200.5829103,226.2962963
6773.305354,191.3979612,226.6758799,200.687409,226.4646465
6797.28867,191.4801897,226.8420501,200.7919078,226.6329966
6821.271987,191.5624182,227.0082202,200.8964065,226.8013468
6845.255303,191.6446468,227.1743903,201.0009052,226.969697
6869.23862,191.7268753,227.3405604,201.105404,227.1380471
6893.221936,191.8091038,227.5067306,201.2099027,227.3063973
6917.205253,191.8916786,227.6726961,201.3145431,227.4747475
6941.188569,191.9764196,227.8373815,201.4200697,227.6430976
6965.171886,192.0611607,228.0020669,201.5255963,227.8114478
6989.155202,192.1459017,228.1667524,201.6311229,227.979798
7013.138519,192.2306428,228.3314378,201.7366495,228.1481481
7037.121835,192.3153838,228.4961233,201.8421761,228.3164983
7061.105152,192.4001249,228.6608087,201.9477027,228.4848485
7085.088468,192.4856731,228.8268058,202.0538346,228.6531987
7109.071785,192.5713278,228.9929759,202.1600465,228.8215488
7133.055101,192.6569825,229.1591461,202.2662583,228.989899
7157.038418,192.7426372,229.3253162,202.3724701,229.1582492
7181.021734,192.8282919,229.4914863,202.478682,229.3265993
7205.005051,192.9139782,229.6576617,202.5850096,229.4949495
7228.988367,193.0003181,229.823946,202.6937339,229.6632997
7252.971684,193.0866581,229.9902303,202.8024583,229.8316498
7276.955,193.172998,230.1565147,202.9111827,230
7300.938316,193.2593379,230.322799,203.019907,230.1683502
7324.921633,193.3456779,230.4890833,203.1286314,230.3367003
7348.904949,193.4320178,230.6553676,203.2373558,230.5050505
7372.888266,193.5205278,230.8215616,203.3468035,230.6734007
7396.871582,193.6096087,230.9877317,203.4564415,230.8417508
7420.854899,193.6986896,231.1539018,203.5660795,231.010101
7444.838215,193.7877705,231.3200719,203.6757176,231.1784512
7468.821532,193.8768514,231.486242,203.7853556,231.3468013
7492.804848,193.9659323,231.6524122,203.8949936,231.5151515
7516.788165,194.0550132,231.8185823,204.0046316,231.6835017
7540.771481,194.1440941,231.9847524,204.1142696,231.8518519
7564.754798,194.233175,232.1509225,204.2239076,232.020202
7588.738114,194.3222559,232.3170927,204.3335457,232.1885522
7612.721431,194.4113367,232.4832628,204.4431837,232.3569024
7636.704747,194.5004711,232.6492593,204.5530888,232.5252525
7660.688064,194.5900088,232.8139447,204.665011,232.6936027
7684.67138,194.6795465,232.9786301,204.7769331,232.8619529
7708.654697,194.7690842,233.1433156,204.8888553,233.030303
7732.638013,194.8586219,233.308001,205.0007774,233.1986532
7756.62133,194.9481596,233.4726865,205.1126995,233.3670034
7780.604646,195.0376973,233.6373719,205.2246217,233.5353535
7804.587963,195.1283187,233.803338,205.337529,233.7037037
7828.571279,195.2191127,233.9695082,205.4505932,233.8720539
7852.554596,195.3099067,234.1356783,205.5636574,234.040404
7876.537912,195.4007007,234.3018484,205.6767216,234.2087542
7900.521229,195.4914947,234.4680185,205.7897858,234.3771044
7924.504545,195.5823376,234.6341915,205.9028212,234.5454545
7948.487862,195.6750731,234.8004758,206.0147434,234.7138047
7972.471178,195.7678086,234.9667602,206.1266655,234.8821549
7996.454495,195.860544,235.1330445,206.2385876,235.0505051
8020.437811,195.9532795,235.2993288,206.3505098,235.2188552
8044.421128,196.046015,235.4656132,206.4624319,235.3872054
8068.404444,196.1387505,235.6318975,206.5743541,235.5555556
8092.387761,196.2326305,235.7980938,206.6884771,235.7239057
8116.371077,196.3268507,235.9642639,206.8032544,235.8922559
8140.354394,196.4210708,236.130434,206.9180317,236.0606061
8164.33771,196.515291,236.2966041,207.032809,236.2289562
8188.321027,196.6095112,236.4627743,207.1475863,236.3973064
8212.304343,196.7037313,236.6289444,207.2623636,236.5656566
8236.28766,196.7995506,236.7951145,207.3771409,236.7340067
