Time (s),T_min (C),T_max (C),T_ave (C),Thermal_Input_C
153.97,100.0,103.09,100.3,100.0
299.3376530612245,100.0,106.0700368877551,100.76070380466471,103.06122448979592
444.705306122449,100.00071568707483,109.05114730612245,101.32866672108844,106.12244897959182
590.0729591836736,100.01130777696794,112.04554658892128,101.99007887026238,109.18367346938776
735.440612244898,100.04458824489797,115.03705931972789,102.71194130612245,112.24489795918369
880.8082653061225,100.1039067430157,118.04064274856555,103.49955577303405,115.30612244897958
1026.175918367347,100.19130620991254,121.03134574344024,104.3447949271137,118.36734693877551
1171.5435714285716,100.33105228571429,124.03256714285715,105.24344842857143,121.42857142857143
1316.911224489796,100.50936683673469,127.03652456268222,106.18761188046646,124.48979591836736
1462.2788775510205,100.73533916326531,130.03776346938776,107.17917073469387,127.55102040816327
1607.646530612245,101.02021731778426,133.04170338192418,108.21137422740524,130.6122448979592
1753.0141836734695,101.34889361516035,136.04250707725947,109.29532268950437,133.6734693877551
1898.3818367346942,101.72989459863946,139.043891292517,110.41342923809523,136.73469387755102
2043.7494897959186,102.15489118075801,142.04909657434402,111.57222795189504,139.79591836734693
2189.117142857143,102.64042171428571,145.0590876190476,112.76596057142858,142.85714285714286
2334.484795918367,103.17047598396502,148.06432791545188,113.96412076530612,145.91836734693877
2479.852448979592,103.748949606414,151.0736684110787,115.2071322303207,148.9795918367347
2625.2201020408165,104.37361246938777,154.07521544217687,116.49098091836734,152.04081632653063
2770.587755102041,105.04914052478134,157.08074635568514,117.8068862973761,155.1020408163265
2915.9554081632655,105.76403776190476,160.0904117687075,119.16464155782313,158.16326530612247
3061.3230612244897,106.51832518950438,163.095977696793,120.55542402332362,161.22448979591837
3206.6907142857144,107.31913913265306,166.10716479591838,121.97690714285714,164.28571428571428
3352.0583673469387,108.16835020408163,169.11653959183676,123.43565812244897,167.3469387755102
3497.4260204081634,109.05249398688046,172.12239613702624,124.91858564139942,170.40816326530611
3642.793673469388,109.98603824489797,175.13173591836735,126.44121293877552,173.46938775510205
3788.1613265306123,110.95424909620992,178.1376274781341,127.98845430758018,176.53061224489795
3933.528979591837,111.96517335276968,181.1488145772595,129.5648187755102,179.59183673469389
4078.8966326530613,113.02223508163264,184.16085685034014,131.17284228571427,182.65306122448982
4224.264285714286,114.11061020408164,187.17404591836737,132.80728724489796,185.71428571428572
4369.631938775511,115.23592912244898,190.18914432653065,134.44803558503403,188.77551020408166
4514.999591836735,116.37799673469388,193.20927725947524,136.07563822157437,191.83673469387753
4660.36724489796,117.5508737973761,196.2204643586006,137.73322331632653,194.89795918367346
4805.734897959184,118.75457314285714,199.23263688435375,139.4170228027211,197.9591836734694
4951.102551020409,119.98710061953354,202.24569569970848,141.13186614431487,201.02040816326533
5096.470204081634,121.25173779591839,205.25788223129254,142.8766384761905,204.08163265306123
5241.8378571428575,122.54395770408163,208.27092704081633,144.64772224489798,207.14285714285714
5387.205510204082,123.87405116618076,211.2821141399417,146.44126848396502,210.20408163265307
5532.573163265307,125.2344926122449,214.29441691836738,148.25802185714286,213.26530612244898
5677.940816326532,126.62014358600584,217.3073454810496,150.0996718658892,216.3265306122449
5823.308469387755,128.03913079591837,220.31966226530614,151.96705620408162,219.38775510204084
5968.67612244898,129.49066666180758,223.33257682215745,153.85469502915453,222.44897959183677
6114.043775510205,130.96759311953352,226.34805276239067,155.76343560495627,225.51020408163265
6259.4114285714295,132.47900038095239,229.36619695238096,157.69651314285716,228.5714285714286
6404.779081632654,134.0168630830904,232.3789952623907,159.65051760204085,231.63265306122452
6550.146734693878,135.56115538775512,235.40467164625852,161.58872711564626,234.69387755102042
6695.514387755103,137.10468884110787,238.43422660349856,163.49847481049562,237.75510204081633
6840.882040816327,138.6613705830904,241.44541370262394,165.42335297376096,240.81632653061223
6986.249693877552,140.23992998639457,244.45797698639458,167.37777919047622,243.87755102040816
7131.617346938777,141.8434504373178,247.47547485422743,169.35249380466473,246.9387755102041
7276.985000000001,143.4722976666667,250.49322233333334,171.35205866666666,250.0
7422.352653061225,145.11629084548107,253.50587638483967,173.37205481049563,253.06122448979593
7567.72030612245,146.7830492565598,256.5223292201166,175.4073500218659,256.1224489795918
7713.087959183675,148.47796538775512,259.53975702040816,177.4630490204082,259.18367346938777
7858.4556122448985,150.1928308309038,262.5576130830904,179.53896986151602,262.2448979591837
8003.823265306123,151.93320073469388,265.57500236734694,181.63477657142857,265.30612244897964
8149.190918367348,153.69303258017493,268.5928969460642,183.7456390962099,268.3673469387755
8294.558571428572,155.4754737755102,271.6087132653061,185.8753618367347,271.42857142857144
8439.926224489796,157.28694201360545,274.62726546938774,188.02170812244898,274.48979591836735
8585.293877551021,159.1177868804665,277.643944606414,190.18360145772596,277.5510204081633
8730.661530612246,160.92882554421772,280.67989214285717,192.30792604081634,280.6122448979592
8876.029183673469,162.72364634110787,283.7091759475219,194.40356393586006,283.6734693877551
9021.396836734693,164.53246045918365,286.72660567784254,196.50725413265306,286.734693877551
9166.764489795918,166.35883257142856,289.7433170884354,198.63673014965985,289.7959183673469
9312.132142857143,168.19424209183674,292.7618895408163,200.78309668367348,292.8571428571429
9457.499795918367,170.0467973877551,295.7785624353741,202.9462636190476,295.9183673469388
9602.867448979592,171.9189291618076,298.7971734037901,205.129359409621,298.9795918367347
9748.235102040817,173.81178740524783,301.8120128279883,207.32698868804667,302.04081632653066
9893.602755102042,175.72475636734694,304.8317373061225,209.53396187755104,305.10204081632656
10038.970408163266,177.65174970845482,307.8540277696793,211.75847412536444,308.1632653061225
10184.33806122449,179.59453002040814,310.8703424693877,214.00189534693877,311.2244897959184
10329.705714285714,181.55886326530612,313.88931163265306,216.26027469387753,314.2857142857143
10475.073367346939,183.5389295116618,316.91088213556856,218.53107624635567,317.3469387755102
10620.441020408163,185.53888608163265,319.9268771564626,220.80757598639457,320.40816326530614
10765.808673469388,187.55077733236152,322.94616599854226,223.1043946793003,323.46938775510205
10911.176326530613,189.53759804081633,325.9907028571429,225.35337034013605,326.530612244898
11056.543979591837,191.49701915451897,329.02144986151603,227.5701334037901,329.5918367346939
11201.911632653062,193.45680704081633,332.04302036443147,229.7972143586006,332.6530612244899
11347.279285714287,195.43815023809526,335.0586571904762,232.04205295238097,335.7142857142858
11492.64693877551,197.43001516034985,338.0783042274052,234.30178804664723,338.7755102040816
11638.014591836734,199.43340136734693,341.0939025374149,236.57622860544217,341.83673469387753
11783.382244897959,201.4535384110787,344.113588090379,238.8588638483965,344.8979591836735
11928.749897959184,203.48649857142857,347.1351585932945,241.15960552478134,347.9591836734694
12074.117551020408,205.53766138775512,350.1584450612245,243.47387297959185,351.0204081632653
12219.485204081633,207.60153968658892,353.1804424562682,245.79776326530612,354.08163265306126
12364.852857142858,209.68222428571428,356.1956825714286,248.13975942857144,357.14285714285717
12510.220510204083,211.77689593294463,359.215726319242,250.4861310932945,360.20408163265313
12655.588163265307,213.88302836734695,362.2372968221575,252.8501500874636,363.265306122449
12800.95581632653,216.00355491836734,365.2606809795918,255.22361166666664,366.3265306122449
12946.323469387755,218.1399024781341,368.28258068513117,257.60086246355684,369.38775510204084
13091.69112244898,220.2472649047619,371.34002631292515,259.9330579591837,372.4489795918367
13237.058775510204,222.32798250728862,374.3590746355685,262.2413605830904,375.5102040816327
13382.426428571429,224.41383658163267,377.37943505102044,264.5556495408163,378.57142857142856
13527.794081632654,226.51555438095238,380.4029168979592,266.8807053061224,381.6326530612245
13673.161734693878,228.63207099125364,383.4247189139942,269.2250394314869,384.6938775510205
13818.529387755103,230.7541290612245,386.4392426394558,271.57937608163263,387.7551020408164
13963.897040816328,232.88206381195337,389.46000277696794,273.9547444533528,390.8163265306123
14109.264693877552,235.0299851166181,392.4815732798834,276.3325439212828,393.8775510204082
14254.632346938775,237.1907342244898,395.50515281632653,278.7257459795918,396.9387755102041
14400.0,239.36,398.53,281.12,400.0
