Time (s),Unnamed: 0,T_min (C),T_max (C),T_ave (C),Thermal_Input_C
191.0,0.0,100.0,107.66,100.35,107.95833333333331
335.98979591836735,1.2999319727891157,100.0,113.59158231292517,100.79196326530612,113.99957482993197
480.9795918367347,2.266530612244898,100.0,119.53182857142858,101.34057959183674,120.04081632653062
625.969387755102,3.23312925170068,100.0,125.4884074829932,101.9825156462585,126.08205782312925
770.9591836734694,4.199727891156463,100.00199727891156,131.45232108843538,102.71777142857142,132.1232993197279
915.9489795918367,5.166326530612245,100.01332653061225,137.41789795918365,103.5446836734694,138.16454081632654
1060.938775510204,6.132925170068027,100.03531700680273,143.39014829931972,104.45558367346938,144.20578231292518
1205.9285714285716,7.09952380952381,100.07497619047618,149.35505714285716,105.44848095238096,150.24702380952382
1350.9183673469388,8.099183673469389,100.12495918367347,155.32962857142857,106.50736326530613,156.28826530612244
1495.908163265306,9.366054421768707,100.21026598639456,161.3122163265306,107.6639074829932,162.32950680272108
1640.8979591836735,10.33265306122449,100.32657142857143,167.28579591836734,108.88577551020408,168.37074829931973
1785.887755102041,11.299251700680273,100.47685782312925,173.2623680272109,110.17595986394558,174.41198979591837
1930.8775510204082,12.265850340136055,100.67380408163265,179.24561360544217,111.53814149659864,180.453231292517
2075.8673469387754,13.232448979591837,100.91741020408163,185.22885918367345,112.9656469387755,186.4944727891156
2220.857142857143,14.19904761904762,101.20966666666666,191.21210476190475,114.46046666666668,192.53571428571425
2365.8469387755104,15.165646258503402,101.5579149659864,197.19535034013606,116.02828571428572,198.5769557823129
2510.8367346938776,16.132244897959183,101.96215510204082,203.17991836734694,117.66010612244898,204.61819727891154
2655.826530612245,17.148265306122447,102.42189285714286,209.17085306122448,119.34791836734694,210.65943877551015
2800.816326530612,18.398775510204082,102.95128979591837,215.1524081632653,121.11172244897959,216.7006802721088
2945.8061224489797,19.365374149659864,103.5374931972789,221.14166598639457,122.93151836734694,222.74192176870744
3090.795918367347,20.331972789115646,104.1857006802721,227.128231292517,124.81062585034014,228.7831632653061
3235.785714285714,21.298571428571428,104.89587142857143,233.12412857142857,126.75207142857143,234.8244047619047
3380.775510204082,22.265170068027214,105.6780462585034,239.12140272108843,128.74950884353743,240.86564625850338
3525.765306122449,23.231768707482995,106.52322721088436,245.10696598639456,130.80293809523812,246.906887755102
3670.7551020408164,24.198367346938777,107.42836734693878,251.09987755102043,132.91235918367346,252.94812925170064
3815.7448979591836,25.247448979591837,108.4056887755102,257.0969132653061,135.0761224489796,258.9893707482993
3960.734693877551,26.464897959183673,109.45603673469387,263.09771836734694,137.30321224489796,265.03061224489795
4105.724489795919,27.43149659863946,110.56348095238096,269.08959387755107,139.57696190476193,271.0718537414966
4250.714285714286,28.39809523809524,111.7416,275.0881904761905,141.9013523809524,277.11309523809524
4395.7040816326535,29.364693877551023,112.98139591836735,281.08474897959184,144.27808775510206,283.1543367346939
4540.693877551021,30.331292517006805,114.28380952380952,287.08732653061224,146.70479591836735,289.19557823129253
4685.683673469388,31.297891156462587,115.65492108843537,293.086925170068,149.1845170068027,295.23681972789115
4830.673469387755,32.264489795918365,117.0846693877551,299.08248163265307,151.71089795918365,301.2780612244898
4975.663265306122,33.34663265306122,118.5774306122449,305.0850591836735,154.2804724489796,307.31930272108843
5120.65306122449,34.531020408163265,120.14087346938776,311.0876367346939,156.8996857142857,313.36054421768705
5265.642857142857,35.49761904761905,121.75595238095238,317.09021428571424,159.56338095238095,319.40178571428567
5410.632653061224,36.46421768707483,123.43166530612244,323.0881496598639,162.27373605442176,325.4430272108843
5555.622448979592,37.43081632653062,125.17270204081633,329.08967755102043,165.02644285714285,331.48426870748295
5700.6122448979595,38.3974149659864,126.9711142857143,335.0979469387755,167.82045170068028,337.5255102040816
5845.602040816327,39.36401360544218,128.8234666666667,341.10052448979593,170.66112040816327,343.56675170068024
5990.591836734694,40.33061224489796,130.73783673469387,347.1064081632653,173.54514285714288,349.60799319727886
6135.581632653061,41.29721088435374,132.7081986394558,353.11567959183674,176.4664931972789,355.64923469387753
6280.571428571428,42.395714285714284,134.73191428571428,359.11825714285715,179.42517142857142,361.69047619047615
6425.561224489796,43.56374149659864,136.81331904761905,365.12083469387755,182.42887346938775,367.7317176870748
6570.551020408164,44.53034013605443,138.9479619047619,371.13401904761906,185.47117823129253,373.7729591836735
6715.540816326531,45.49693877551021,141.13798979591837,377.14598979591835,188.55020408163267,379.8142006802721
6860.530612244898,46.46353741496599,143.3746775510204,383.14856734693876,191.6618612244898,385.8554421768707
7005.5204081632655,47.43013605442177,145.66232653061223,389.1554462585034,194.81514761904762,391.8966836734694
7150.510204081633,48.396734693877555,148.002,394.54084897959183,197.9873224489796,397.2601700680272
7295.5,49.36333333333334,150.38833333333332,397.3908666666667,201.0718,400.0
7440.489795918367,50.494897959183675,152.82132653061225,397.5047448979592,204.0048469387755,400.0
7585.4795918367345,51.62986394557823,155.31134761904764,397.57409047619046,206.84290408163264,400.0
7730.469387755102,52.59646258503401,157.84466122448978,397.6298231292517,209.61395374149657,400.0
7875.45918367347,53.5630612244898,160.41900408163266,397.67815306122446,212.33094081632655,400.0
8020.448979591837,54.52965986394558,163.03067482993197,397.72118639455783,215.0012680272109,400.0
8165.438775510204,55.496258503401364,165.6846360544218,397.7648129251701,217.61997278911565,400.0
8310.428571428572,56.46285714285715,168.37137142857145,397.8085142857143,220.18268571428572,400.0
8455.41836734694,57.42945578231293,171.0853598639456,397.8471782312925,222.69799591836735,400.0
8600.408163265307,58.59408163265307,173.8228142857143,397.88188163265306,225.17399795918368,400.0
8745.397959183674,59.69598639455783,176.57356122448982,397.91087959183676,227.60692585034016,400.0
8890.387755102041,60.66258503401361,179.3283673469388,397.94650340136053,230.00658503401363,400.0
9035.377551020409,61.62918367346939,182.08946530612246,397.9788755102041,232.36891632653064,400.0
9180.367346938776,62.595782312925174,184.84797959183675,398.00787346938773,234.69391972789117,400.0
9325.357142857143,63.562380952380956,187.59716190476192,398.03687142857143,236.98159523809522,400.0
9470.34693877551,64.52897959183673,190.33701224489795,398.0658693877551,239.22665306122448,400.0
9615.336734693878,65.49557823129251,193.0675306122449,398.09486734693877,241.43496258503401,400.0
9760.326530612245,66.4621768707483,195.77947346938777,398.12386530612247,243.61065442176871,400.0
9905.316326530612,67.64316326530611,198.46985204081633,398.14643163265305,245.75545,400.0
10050.30612244898,68.7287074829932,201.13394557823128,398.1718612244898,247.86858231292518,400.0
10195.295918367347,69.69530612244898,203.77123265306122,398.20085918367346,249.95490816326532,400.0
10340.285714285714,70.66190476190476,206.3805238095238,398.2232380952381,252.00661904761904,400.0
10485.275510204081,71.62850340136055,208.96810408163265,398.2488551020408,254.02728707482993,400.0
10630.265306122448,72.59510204081631,211.52511836734692,398.2778530612245,256.01995918367345,400.0
10775.255102040817,73.56170068027211,214.03918775510206,398.30123401360544,257.97340136054424,400.0
10920.244897959185,74.52829931972789,216.51716326530612,398.32056598639457,259.89603265306124,400.0
11065.234693877552,75.74234693877551,218.96714285714287,398.3448469387755,261.79505102040815,400.0
11210.224489795919,76.7948299319728,221.38707482993198,398.36589659863944,263.65607346938776,400.0
11355.214285714286,77.76142857142858,223.7731142857143,398.39284285714285,265.4967142857143,400.0
11500.204081632653,78.72802721088436,226.12910612244897,398.4145605442177,267.3186911564626,400.0
11645.19387755102,79.69462585034015,228.45710204081632,398.4338925170068,269.10811156462586,400.0
11790.183673469388,80.66122448979591,230.75710204081633,398.4532244897959,270.8734285714286,400.0
11935.173469387755,81.6278231292517,233.02910612244898,398.47883469387756,272.62008163265307,400.0
12080.163265306122,82.59442176870748,235.25528163265307,398.50188843537416,274.3302380952381,400.0
12225.15306122449,83.8415306122449,237.44229591836736,398.51841530612245,276.00776020408165,400.0
12370.142857142857,84.86095238095238,239.59131428571428,398.5372190476191,277.66222857142856,400.0
12515.132653061224,85.82755102040817,241.71233673469388,398.55655102040816,279.2902857142857,400.0
12660.122448979591,86.79414965986395,243.8053632653061,398.57588299319724,280.8982884353741,400.0
12805.112244897959,87.76074829931973,245.870393877551,398.59521496598643,282.48001972789115,400.0
12950.102040816328,88.72734693877551,247.91470204081634,398.6145469387755,284.04830204081634,400.0
13095.091836734695,89.6939455782313,249.9264673469388,398.63387891156464,285.59337346938776,400.0
13240.081632653062,90.66054421768708,251.91411564625852,398.65321088435377,287.11705442176867,400.0
13385.07142857143,91.62714285714286,253.87682857142858,398.67254285714284,288.6158,400.0
13530.061224489797,92.89061224489797,255.8145142857143,398.688906122449,290.0984244897959,400.0
13675.051020408164,93.89367346938776,257.72947346938776,398.7078734693877,291.5594469387755,400.0
13820.040816326531,94.86027210884355,259.5831197278912,398.7272054421769,292.99320272108844,400.0
13965.030612244898,95.82687074829933,261.41278571428575,398.746537414966,294.398962585034,400.0
14110.020408163266,96.79346938775511,263.2158530612245,398.75793469387753,295.78466122448975,400.0
14255.010204081633,97.76006802721089,264.99852517006804,398.7752013605442,297.15169591836735,400.0
14400.0,99.0,266.76,398.79,298.5,400.0
