Time (s),Unnamed: 0,T_min (C),T_max (C),T_ave (C),Thermal_Input_C
191.0,0.0,100.0,107.73,100.48,107.95833333333331
335.98979591836735,1.2999319727891157,100.0,113.69357959183674,101.01595782312926,113.99957482993197
480.9795918367347,2.266530612244898,100.0,119.66982448979591,101.63923673469388,120.04081632653062
625.969387755102,3.23312925170068,100.0,125.6530700680272,102.34650340136054,126.08205782312925
770.9591836734694,4.199727891156463,100.0,131.63831292517008,103.13576054421769,132.1232993197279
915.9489795918367,5.166326530612245,100.00166326530612,137.63122448979593,103.99967346938776,138.16454081632654
1060.938775510204,6.132925170068027,100.01,143.62413605442177,104.93824217687074,144.20578231292518
1205.9285714285716,7.09952380952381,100.01199047619048,149.6170476190476,105.94947619047619,150.24702380952382
1350.9183673469388,8.099183673469389,100.0309918367347,155.61062040816324,107.01637142857143,156.28826530612244
1495.908163265306,9.366054421768707,100.05464217687076,161.61319795918368,108.15658639455782,162.32950680272108
1640.8979591836735,10.33265306122449,100.09663265306122,167.61244897959185,109.35579591836735,168.37074829931973
1785.887755102041,11.299251700680273,100.14795510204081,173.6083530612245,110.61398979591837,174.41198979591837
1930.8775510204082,12.265850340136055,100.2165850340136,179.6109306122449,111.93219047619047,180.453231292517
2075.8673469387754,13.232448979591837,100.31789387755103,185.6135081632653,113.3017,186.4944727891156
2220.857142857143,14.19904761904762,100.43985714285714,191.61608571428573,114.73454285714287,192.53571428571425
2365.8469387755104,15.165646258503402,100.58981632653061,197.61866326530614,116.2233775510204,198.5769557823129
2510.8367346938776,16.132244897959183,100.76909387755101,203.62256326530613,117.76820408163265,204.61819727891154
2655.826530612245,17.148265306122447,100.98520510204081,209.63381836734695,119.36753979591838,210.65943877551015
2800.816326530612,18.398775510204082,101.24564489795918,215.63639591836733,121.0238693877551,216.7006802721088
2945.8061224489797,19.365374149659864,101.54057346938775,221.64262721088437,122.72401972789116,222.74192176870744
3090.795918367347,20.331972789115646,101.87614965986394,227.65155102040816,124.47414965986394,228.7831632653061
3235.785714285714,21.298571428571428,102.25838571428571,233.6571142857143,126.27728571428571,234.8244047619047
3380.775510204082,22.265170068027214,102.6846299319728,239.666706122449,128.12708163265307,240.86564625850338
3525.765306122449,23.231768707482995,103.15283741496599,245.6716013605442,130.023537414966,246.906887755102
3670.7551020408164,24.198367346938777,103.67505306122449,251.68384489795918,131.9686367346939,252.94812925170064
3815.7448979591836,25.247448979591837,104.24145408163265,257.69691326530614,133.96395408163266,258.9893707482993
3960.734693877551,26.464897959183673,104.86148163265305,263.7070163265306,136.00488163265305,265.03061224489795
4105.724489795919,27.43149659863946,105.52636258503402,269.7139088435374,138.09066258503404,271.0718537414966
4250.714285714286,28.39809523809524,106.24051428571428,275.7261523809524,140.2177523809524,277.11309523809524
4395.7040816326535,29.364693877551023,107.01269591836734,281.73839591836736,142.38785510204082,283.1543367346939
4540.693877551021,30.331292517006805,107.831537414966,287.75063945578233,144.5985986394558,289.19557823129253
4685.683673469388,31.297891156462587,108.70001768707483,293.7628829931973,146.85600204081635,295.23681972789115
4830.673469387755,32.264489795918365,109.62184489795918,299.7751265306122,149.15742040816326,301.2780612244898
4975.663265306122,33.34663265306122,110.58917653061225,305.78852551020407,151.4950112244898,307.31930272108843
5120.65306122449,34.531020408163265,111.61881224489795,311.8029469387755,153.87162040816327,313.36054421768705
5265.642857142857,35.49761904761905,112.69728571428571,317.8151904761905,156.28897619047618,319.40178571428567
5410.632653061224,36.46421768707483,113.82241904761904,323.82743401360545,158.7530394557823,325.4430272108843
5555.622448979592,37.43081632653062,114.99852040816326,329.84398571428574,161.2458142857143,331.48426870748295
5700.6122448979595,38.3974149659864,116.22663945578232,335.8619210884354,163.7691755102041,337.5255102040816
5845.602040816327,39.36401360544218,117.50505850340137,341.87416462585037,166.33919659863946,343.56675170068024
5990.591836734694,40.33061224489796,118.83616326530613,347.88971428571426,168.94926530612247,349.60799319727886
6135.581632653061,41.29721088435374,120.21392789115646,353.90865170068025,171.59030204081634,355.64923469387753
6280.571428571428,42.395714285714284,121.63967142857142,359.9222142857143,174.26207142857143,361.69047619047615
6425.561224489796,43.56374149659864,123.1237993197279,365.93647210884353,176.97538843537416,367.7317176870748
6570.551020408164,44.53034013605443,124.64854421768709,371.9593224489796,179.72677278911567,373.7729591836735
6715.540816326531,45.49693877551021,126.22491836734694,377.98095918367346,182.5011836734694,379.8142006802721
6860.530612244898,46.46353741496599,127.84801360544218,383.99320272108844,185.30816462585034,385.8554421768707
7005.5204081632655,47.43013605442177,129.5170394557823,390.00974761904763,188.15750408163265,391.8966836734694
7150.510204081633,48.396734693877555,131.2341224489796,395.39688163265305,191.00846530612245,397.2601700680272
7295.5,49.36333333333334,132.99216666666666,398.22633333333334,193.72556666666668,400.0
7440.489795918367,50.494897959183675,134.79357142857143,398.30979591836734,196.24132653061224,400.0
7585.4795918367345,51.62986394557823,136.65193605442178,398.35519455782315,198.6683612244898,400.0
7730.469387755102,52.59646258503401,138.55099591836733,398.39385850340136,201.03940408163265,400.0
7875.45918367347,53.5630612244898,140.4873836734694,398.4268918367347,203.36571632653062,400.0
8020.448979591837,54.52965986394558,142.46639591836734,398.4558897959184,205.64940408163267,400.0
8165.438775510204,55.496258503401364,144.49206802721088,398.47992517006804,207.89139455782313,400.0
8310.428571428572,56.46285714285715,146.55514285714287,398.50388571428573,210.09605714285718,400.0
8455.41836734694,57.42945578231293,148.65050816326533,398.53288367346937,212.25909727891158,400.0
8600.408163265307,58.59408163265307,150.77924081632653,398.55594081632654,214.38735918367348,400.0
8745.397959183674,59.69598639455783,152.9459693877551,398.57391972789117,216.48333061224488,400.0
8890.387755102041,60.66258503401361,155.14069387755103,398.5932517006803,218.55130612244898,400.0
9035.377551020409,61.62918367346939,157.3571224489796,398.6125836734694,220.59128571428573,400.0
9180.367346938776,62.595782312925174,159.59221496598641,398.6319156462585,222.60326938775512,400.0
9325.357142857143,63.562380952380956,161.84034761904763,398.65124761904764,224.59288095238097,400.0
9470.34693877551,64.52897959183673,164.10310204081634,398.6652897959184,226.55853877551021,400.0
9615.336734693878,65.49557823129251,166.37460884353743,398.67991156462585,228.49124489795918,400.0
9760.326530612245,66.4621768707483,168.650737414966,398.69924353741493,230.39586666666668,400.0
9905.316326530612,67.64316326530611,170.9297663265306,398.7164316326531,232.2796806122449,400.0
10050.30612244898,68.7287074829932,173.20974965986395,398.73457414965986,234.131831292517,400.0
10195.295918367347,69.69530612244898,175.4909224489796,398.7469530612245,235.96412857142857,400.0
10340.285714285714,70.66190476190476,177.7654761904762,398.7632380952381,237.7777619047619,400.0
10485.275510204081,71.62850340136055,180.03069795918367,398.7762850340136,239.5664462585034,400.0
10630.265306122448,72.59510204081631,182.2925387755102,398.7919020408163,241.3330857142857,400.0
10775.255102040817,73.56170068027211,184.5431455782313,398.8056170068027,243.08106122448982,400.0
10920.244897959185,74.52829931972789,186.78037142857144,398.8152829931973,244.80508979591838,400.0
11065.234693877552,75.74234693877551,189.00579081632654,398.8274234693877,246.5159693877551,400.0
11210.224489795919,76.7948299319728,191.21221224489798,398.84589659863946,248.19505578231295,400.0
11355.214285714286,77.76142857142858,193.40844285714286,398.8576142857143,249.85204285714286,400.0
11500.204081632653,78.72802721088436,195.5880612244898,398.8745605442177,251.48308571428572,400.0
11645.19387755102,79.69462585034015,197.7490156462585,398.8869462585034,253.10002517006805,400.0
11790.183673469388,80.66122448979591,199.89130612244898,398.89661224489794,254.70102040816326,400.0
11935.173469387755,81.6278231292517,202.01493265306124,398.9062782312925,256.28335170068027,400.0
12080.163265306122,82.59442176870748,204.11989523809524,398.92188843537417,257.847019047619,400.0
12225.15306122449,83.8415306122449,206.21180408163264,398.93841530612247,259.3920224489796,400.0
12370.142857142857,84.86095238095238,208.2824380952381,398.9486095238095,260.92030476190473,400.0
12515.132653061224,85.82755102040817,210.32613265306122,398.9582755102041,262.4309795918367,400.0
12660.122448979591,86.79414965986395,212.35771428571428,398.96794149659866,263.9229904761905,400.0
12805.112244897959,87.76074829931973,214.35714149659862,398.9776074829932,265.39633741496596,400.0
12950.102040816328,88.72734693877551,216.33378775510204,398.9945469387755,266.8437469387755,400.0
13095.091836734695,89.6939455782313,218.28483061224492,399.0069394557823,268.2701,400.0
13240.081632653062,90.66054421768708,220.22108843537416,399.01660544217685,269.68439455782317,400.0
13385.07142857143,91.62714285714286,222.13547142857144,399.0262714285714,271.08308571428574,400.0
13530.061224489797,92.89061224489797,224.02779591836733,399.038906122449,272.4660816326531,400.0
13675.051020408164,93.89367346938776,225.89478979591837,399.0489367346939,273.83007959183675,400.0
13820.040816326531,94.86027210884355,227.7517224489796,399.05860272108845,275.18438095238093,400.0
13965.030612244898,95.82687074829933,229.5827857142857,399.068268707483,276.5210816326531,400.0
14110.020408163266,96.79346938775511,231.4017224489796,399.0779346938775,277.84705306122447,400.0
14255.010204081633,97.76006802721089,233.19612585034014,399.0876006802721,279.15609183673473,400.0
14400.0,99.0,234.98,399.1,280.46,400.0
