Time (s),T_min (C),T_max (C),T_ave (C),Thermal_Input_C
147.89,100.0,100.26,100.02,102.05402779421
293.319693877551,100.0,100.76415627210885,100.08786719047619,104.07388466977929
438.749387755102,100.0,101.38417416909621,100.18079800291545,106.09374152597388
584.179081632653,100.0,102.0927032244898,100.3167083537415,108.11359833150935
729.608775510204,100.0001227696793,102.84957603498543,100.47208708454811,110.13345519648715
875.0384693877551,100.01095306571399,103.66098182570143,100.65000718999686,112.15331207205642
1020.4681632653061,100.03036688046647,104.49540897959184,100.8540356851312,114.17316894762571
1165.897857142857,100.05171382653062,105.36912969387754,101.08371061224489,116.1930258203986
1311.327551020408,100.0835806802721,106.26504115646259,101.33416959183674,118.21288264524443
1456.757244897959,100.12316330174927,107.18693943148688,101.59708182944607,120.23273947433357
1602.18693877551,100.17761970068027,108.12429379591836,101.88047880272109,122.25259634990286
1747.616632653061,100.25485831632653,109.0845462026239,102.19082135568513,124.27245322547213
1893.046326530612,100.33081880466472,110.05277864431487,102.50570205539358,126.29231010104142
2038.476020408163,100.43508908163265,111.0412886734694,102.84938244897958,128.3121669766107
2183.905714285714,100.54486244897959,112.04089673469389,103.20001428571429,130.33202384601208
2329.335408163265,100.68143540816327,113.05004785714286,103.56716108843538,132.3518806672186
2474.765102040816,100.8280697521866,114.07046501457727,103.95577670553935,134.37173750331857
2620.194795918367,100.98707225218658,115.10924854227406,104.35369941690962,136.39159437888785
2765.624489795918,101.16696598639456,116.15146462585034,104.77317346938776,138.41145125445715
2911.054183673469,101.36142353498542,117.20869476676386,105.20946255102041,140.4313081277193
3056.48387755102,101.56573420408164,118.27152069387755,105.65146840816327,142.45116497735378
3201.9135714285712,101.79945086734695,119.34838653061225,106.11718647959184,144.47102179031964
3347.3432653061222,102.0404741690962,120.43082448979591,106.58884524781341,146.4908786567343
3492.7729591836733,102.2950961904762,121.52503448979593,107.08089292517006,148.51073553230358
3638.2026530612243,102.57060530612246,122.62943437317784,107.58605928571428,150.53059240787286
3783.6323469387753,102.86384685034014,123.73633014965986,108.10101860544218,152.55044928344213
3929.0620408163263,103.16677580174927,124.86039288629738,108.63574472303206,154.57030615479343
4074.4917346938773,103.48363825072887,125.98489279154519,109.18113954810497,156.59016299733483
4219.921428571429,103.82085142857143,127.12056857142858,109.74528428571429,158.6100198181044
4365.35112244898,104.17362780612245,128.26693389941693,110.31980448979593,160.62987668571927
4510.780816326531,104.54149012244899,129.42018780952384,110.90438198639457,162.64973356128857
4656.210510204081,104.92398567055393,130.57648408163266,111.50145143586006,164.66959043685787
4801.640204081633,105.32184771137027,131.7430459329446,112.11745801749272,166.6894472971337
4947.069897959184,105.73423170068028,132.91991517006804,112.74306955782313,168.7093041223123
5092.499591836735,106.1637987755102,134.10635379008747,113.37751247813412,170.7291609635657
5237.9292857142855,106.60675842857142,135.30024014285715,114.02679942857142,172.74901783913498
5383.358979591837,107.06611814868805,136.49666011661807,114.69105954810496,174.76887471470428
5528.788673469388,107.53720564139942,137.70528391399418,115.36990374635569,176.78873159027358
5674.218367346939,108.0214824489796,138.91931972789115,116.06032816326531,178.80858846584286
5819.6480612244895,108.51742192419825,140.13616223032068,116.76134772594753,180.82844532147067
5965.077755102041,109.02583991836734,141.36791684353742,117.47207692517007,182.84830214547787
6110.5074489795925,109.55539909620991,142.60716331632653,118.19679491982508,184.86815899255075
6255.937142857143,110.09971204081633,143.8474612244898,118.9343312244898,186.88801586812002
6401.366836734694,110.65117397959183,145.15928163265306,119.67579642857143,188.9078727436893
6546.796530612245,111.20717233236152,146.52006877551023,120.4228964431487,190.92772961338997
6692.226224489797,111.77730489795918,147.8203591904762,121.17878478231293,192.94758644871476
6837.655918367347,112.3590236734694,149.104998425656,121.95012099125364,194.9674432767307
6983.085612244898,112.9500546793003,150.38270216472304,122.73386475218659,196.98730014596643
7128.515306122449,113.5565842857143,151.66612238095237,123.52603034013606,199.0071570215357
7273.945000000001,114.17305,152.9596875,124.32324750000001,201.027013897105
7419.374693877551,114.79972367346939,154.25374228571428,125.13502326530613,203.04687077267428
7564.804387755102,115.44106974489796,155.5521394897959,125.96231078717202,205.06672763918758
7710.234081632653,116.09550336734694,156.8610067346939,126.79850432944606,207.0865844686958
7855.663775510205,116.75771336734695,158.17505823129252,127.64102989795919,209.10644130470357
8001.093469387755,117.43505492711371,159.49919743440236,128.49393271137026,211.12629817495144
8146.523163265306,118.12739118367347,160.82809155782314,129.36173897959182,213.14615505052072
8291.952857142856,118.82968530612244,162.15705469387754,130.23960663265305,215.16601192609
8437.382551020408,119.54173543002916,163.49805225947523,131.1282499562682,217.18586877386878
8582.81224489796,120.2645612244898,164.84685346938775,132.02645591836736,219.20572559938012
8728.241938775509,121.00318711370262,166.19603228862974,132.92926776239068,221.22558245279782
8873.67163265306,121.75029438095238,167.55053523809525,133.84322034013604,223.24543932836713
9019.101326530612,122.5092070116618,168.91561250728864,134.77200852769678,225.26529620393643
9164.531020408162,123.27790682215742,170.28680676384838,135.71310163265306,227.28515307950568
9309.960714285713,124.05712785714286,171.66150809523808,136.66146333333333,229.30500995507498
9455.390408163265,124.85119724489796,173.04115887755103,137.61493696793002,231.32486679692923
9600.820102040816,125.66035257142858,174.42583830612244,138.57946734693877,233.3447236237371
9746.249795918367,126.47223457725948,175.8219444606414,139.55320577259477,235.36458048178287
9891.679489795917,127.29588279883382,177.21760368804664,140.53636082361515,237.38443735735214
10037.109183673469,128.13502991203143,178.61838318671906,141.53078253953146,239.40429423292142
10182.53887755102,128.98372771137025,180.0283776676385,142.5350193658892,241.4241510990368
10327.96857142857,129.84314685714284,181.4430274285714,143.54978,243.44400792007568
10473.398265306121,130.7123895918367,182.8635401676385,144.56778785714286,245.4638647631337
10618.827959183673,131.58496775510204,184.28667360058307,145.6001997084548,247.48372163519855
10764.257653061224,132.47171360544218,185.71840884353742,146.6379712585034,249.50357851076785
10909.687346938776,133.37191422740526,187.15961008746356,147.68360157434404,251.52343538633716
11055.117040816325,134.28126678911565,188.59688813605442,148.73838382993196,253.54329226190643
11200.546734693877,135.19457947521866,190.13336454810494,149.80445097667638,255.56314912355865
11345.976428571428,136.0932837755102,191.77401632653059,150.85126020408165,257.5830059400568
11491.406122448978,136.99311795918365,193.32698408163265,151.9040844897959,259.6028627912978
11636.83581632653,137.8963368586006,194.82945411078717,152.96294666180756,261.62271966418353
11782.26551020408,138.80606386394558,196.30789050340135,154.0355647755102,263.64257653975284
11927.695204081632,139.72734808309036,197.78262278425655,155.10704328717202,265.66243341532214
12073.124897959184,140.6600886297376,199.257695393586,156.19343673469388,267.68229025059776
12218.554591836733,141.5995863605442,200.73161986394555,157.28014095238095,269.70214707647216
12363.984285714285,142.54389785714284,202.2064120408163,158.37816673469388,271.72200394203
12509.413979591836,143.5013322653061,203.6884225918367,159.48274624489795,273.7418608175993
12654.843673469386,144.47452180758015,205.17347466472302,160.59301950437316,275.7617176931686
12800.273367346937,145.45097832361515,206.65893510932943,161.7132516909621,277.7815745687378
12945.703061224489,146.43838081632651,208.15108476190474,162.83757034013604,279.8014314443071
13091.13275510204,147.4343388921283,209.6465083381924,163.97747164723032,281.82128827238233
13236.562448979592,148.44136631292517,211.1484786394558,165.1213579319728,283.8411451020199
13381.992142857142,149.457945,212.64534775510202,166.2642239795918,285.861001971015
13527.421836734693,150.47595285714286,214.15968486880467,167.42537469387753,287.88085884658426
13672.851530612244,151.51194091836734,215.67245591836735,168.58881224489795,289.90071572215356
13818.281224489794,152.5505801749271,217.18864705539357,169.76155559766764,291.9205725846947
13963.710918367346,153.59711861224488,218.71044094557823,170.9437821360544,293.9404293914367
14109.140612244897,154.65545303206997,220.2276092419825,172.127859271137,295.96028624955756
14254.570306122449,155.72476725218658,221.7637432361516,173.32182751457725,297.98014312443075
14400.0,156.8,223.3,174.52,300.0
