Time (s),T_min (C),T_max (C),T_ave (C),Thermal_Input_C
144.0,100.0,120.04,102.06,202.000000016
289.46938775510205,100.0,128.6032979591837,104.00928979591836,204.0204081954286
434.9387755102041,100.02043809523809,134.18634829931972,105.7501387755102,206.04081635738777
580.4081632653061,100.08832380952381,138.26918911564627,107.32120816326531,208.06122446408162
725.8775510204082,100.24335276967929,141.57647813411077,108.78783673469387,210.0816326337143
871.3469387755102,100.50861224489796,144.39469387755102,110.16563265306122,212.10204081314288
1016.8163265306123,100.87905247813411,147.054055393586,111.46434110787172,214.1224489925714
1162.2857142857142,101.3514857142857,149.31876190476189,112.72015238095238,216.1428571691276
1307.7551020408164,101.90636151603499,151.40042565597668,113.95084548104957,218.1632652981411
1453.2244897959185,102.54348688046647,153.34728279883382,115.1451137026239,220.18367343085714
1598.6938775510205,103.23542857142857,155.18926530612245,116.32755102040815,222.20408161028573
1744.1632653061224,103.98517201166182,156.95978134110788,117.49130612244898,224.22448978971428
1889.6326530612246,104.77962721088436,158.66925442176873,118.65401904761904,226.24489796914287
2035.1020408163267,105.61661224489795,160.33450145772596,119.80802332361516,228.26530614857143
2180.5714285714284,106.49179591836734,161.9634693877551,120.96138775510204,230.2857143218449
2326.0408163265306,107.38812244897959,163.57097959183673,122.11485714285715,232.3061224483755
2471.5102040816328,108.30381632653061,165.15886005830905,123.26883090379009,234.32653058685713
2616.979591836735,109.25166530612245,166.7266476190476,124.42383673469388,236.34693876628572
2762.448979591837,110.21387172011663,168.2863498542274,125.58627405247813,238.36734694571427
2907.918367346939,111.19401166180758,169.83455976676385,126.743055393586,240.38775512309272
3053.387755102041,112.19375510204081,171.38151020408162,127.9170612244898,242.40816327787755
3198.857142857143,113.20577551020408,172.92277551020408,129.09063265306122,244.42857139469183
3344.326530612245,114.23430748299319,174.4594394557823,130.26665578231294,246.44897956342857
3489.795918367347,115.26609912536443,175.9926997084548,131.45189504373178,248.46938774285715
3635.265306122449,116.31779008746356,177.5305189504373,132.6468221574344,250.4897959222857
3780.7346938775513,117.37938775510204,179.06938775510204,133.84367346938774,252.5102041017143
3926.2040816326535,118.44923032069971,180.61044314868806,135.04913411078718,254.53061227723236
4071.673469387755,119.53129523809524,182.14933877551022,136.26645714285715,256.5510204247347
4217.142857142857,120.61857142857143,183.69273469387755,137.48697959183673,258.5714285461061
4362.6122448979595,121.71510787172012,185.24370262390673,138.70820408163266,260.59183671942856
4508.081632653061,122.82795918367347,186.80020408163267,139.94616326530613,262.6122448988571
4653.551020408164,123.94510787172013,188.3509358600583,141.18618367346937,264.6326530782857
4799.0204081632655,125.0591537414966,190.00226394557822,142.42117278911564,266.65306124210724
4944.489795918367,126.15367346938775,191.831416909621,143.65127113702624,268.6734693712607
5089.95918367347,127.24797667638485,193.50539941690963,144.87737026239068,270.69387751657143
5235.428571428572,128.34742857142857,195.1222857142857,146.10542857142858,272.71428569600005
5380.897959183674,129.44843440233237,196.7091778425656,147.33863265306124,274.7346938754286
5526.367346938776,130.56148299319727,198.2855673469388,148.57686802721088,276.75510205485716
5671.836734693878,131.67902623906704,199.85937026239068,149.82344606413994,278.7755102342857
5817.30612244898,132.80502623906705,201.434944606414,151.08071720116618,280.79591839391486
5962.775510204082,133.93844897959184,203.00869387755102,152.33938775510205,282.8163265223347
6108.244897959184,135.07620991253646,204.58506997084547,153.6027055393586,284.8367346725714
6253.714285714286,136.22771428571428,206.15889523809523,154.87150476190476,286.85714285200004
6399.183673469388,137.39146938775508,207.74307871720114,156.1487696793003,288.8775510314286
6544.65306122449,138.5552244897959,209.3285189504373,157.4328804664723,290.8979592056583
6690.122448979592,139.72779591836735,210.9129387755102,158.720693877551,292.9183673452245
6835.591836734694,140.9115335276968,212.50751020408165,160.01992711370264,294.93877547699503
6981.061224489797,142.09990204081635,214.10320272108845,161.31908027210886,296.95918364914286
7126.530612244898,143.29811078717202,215.69783673469388,162.6272419825073,298.9795918285714
7272.0,144.50342857142857,217.298,163.942,301.00000000800003
7417.469387755103,145.71224489795918,218.90306122448982,165.2610204081633,303.0204081874286
7562.938775510204,146.931055393586,220.51325072886297,166.5902973760933,305.04081635848604
7708.408163265307,148.15998911564628,222.12345034013606,167.92455510204084,307.06122449208164
7853.877551020409,149.39395918367347,223.73863556851313,169.2638717201166,309.0816326297213
7999.34693877551,150.6358309037901,225.35958017492712,170.60426822157433,311.10204080514285
8144.816326530613,151.87963265306124,226.97975510204083,171.9542857142857,313.12244898457146
8290.285714285714,153.12932653061225,228.60548979591834,173.3138163265306,315.142857164
8435.755102040817,154.39399455782313,230.23565714285715,174.67304761904762,317.16326531508685
8581.224489795919,155.6629562682216,231.86601749271136,176.0381166180758,319.1836734443802
8726.69387755102,156.93652478134112,233.50325947521867,177.4155918367347,321.2040816022857
8872.163265306122,158.19232653061223,235.32551020408164,178.78285714285715,323.2244897817143
9017.632653061224,159.4189300291545,237.22527696793003,180.1365889212828,325.24489796114284
9163.102040816328,160.63845714285716,239.0132843537415,181.48567891156463,327.26530614057145
9308.57142857143,161.86281632653063,240.7246530612245,182.835306122449,329.28571432
9454.040816326531,163.09534693877552,242.4054693877551,184.18609329446065,331.30612246598486
9599.510204081633,164.3286530612245,244.0688163265306,185.54779591836734,333.3265305962939
9744.979591836734,165.5698250728863,245.72326822157433,186.91130903790088,335.3469387582857
9890.448979591838,166.8194612244898,247.37951836734695,188.27662040816327,337.36734693771433
10035.91836734694,168.07443731778426,249.0273644314869,189.64665889212827,339.3877551171429
10181.387755102041,169.33866472303208,250.67604664723032,191.0182274052478,341.40816328822393
10326.857142857143,170.61514285714287,252.33257142857144,192.40057142857142,343.42857141257144
10472.326530612245,171.89386880466472,253.9867084548105,193.78410204081632,345.44897955929827
10617.795918367348,173.18032380952383,255.63635374149663,195.1695210884354,347.46938773485715
10763.26530612245,174.46920699708457,257.29446064139944,196.56720116618078,349.4897959142857
10908.734693877552,175.7651311953353,258.9494868804665,197.96994169096212,351.5102040937143
11054.204081632653,177.0718367346939,260.6136734693878,199.375306122449,353.5306122731429
11199.673469387755,178.3810612244898,262.2776967930029,200.77899416909622,355.55102043973966
11345.142857142857,179.69769523809524,263.94443809523807,202.19179047619048,357.57142855942857
11490.61224489796,181.02474052478135,265.6084256559767,203.61327696793003,359.5918367133365
11636.081632653062,182.35474635568517,267.27893877551026,205.03679883381926,361.61224489085714
11781.551020408164,183.69146938775512,268.9557551020408,206.46983673469387,363.63265307028576
11927.020408163266,185.03140233236152,270.62973469387754,207.90405830903788,365.6530612497143
12072.489795918367,186.37800544217686,272.3065823129252,209.3390993197279,367.6734693880664
12217.95918367347,187.7281924198251,273.9886705539359,210.78145189504374,369.69387751749974
12363.428571428572,189.08751020408164,275.6719591836735,212.23428571428573,371.714285688
12508.897959183674,190.45404081632654,277.3588163265306,213.68897959183673,373.7346938674286
12654.367346938776,191.82489212827988,279.05141982507286,215.14367346938775,375.75510204685713
12799.836734693878,193.16769795918367,281.01654693877555,216.58997823129252,377.7755102262857
12945.30612244898,194.47309037900874,283.0222915451895,218.02573177842567,379.79591840571425
13090.775510204083,195.78097959183674,284.88280466472304,219.45964431486883,381.81632653805485
13236.244897959185,197.09020408163266,286.65457142857144,220.89481632653062,383.83673467025307
13381.714285714286,198.39942857142856,288.3934489795919,222.3380204081633,385.857142844
13527.183673469388,199.71753197278912,290.1204462585034,223.77407891156463,387.87755102342857
13672.65306122449,201.04625655976676,291.83626822157436,225.21734110787173,389.8979592028572
13818.122448979593,202.37626239067058,293.5411486880467,226.66164431486882,391.9183673707895
13963.591836734695,203.7142448979592,295.24787755102045,228.10661224489797,393.9387754799184
14109.061224489797,205.06413994169097,296.95214577259475,229.56061224489798,395.9591836416015
14254.530612244898,206.41225034013607,298.6588925170068,231.015306122449,397.97959182057144
14400.0,207.78,300.36,232.47,400.0
