Time (s),T_min (C),T_max (C),T_ave (C),Thermal_Input_C
153.97,108.29,129.95,110.36,130.03515943549948
299.3376530612245,108.29076680758018,148.67338306122448,113.42575644314869,148.78151777389408
444.705306122449,108.31500980952381,165.68935420408164,116.84909834013605,165.8141707955329
590.0729591836736,108.3874107361516,181.14559061224492,120.51742174198252,181.28680289697746
735.440612244898,108.57752946938776,199.87911986394556,124.746471292517,200.04605801579285
880.8082653061225,108.9353938296021,213.01574675689028,128.97750160679854,213.17018607628683
1026.175918367347,109.49435842565599,221.17284303206998,132.6035381341108,221.34085270523414
1171.5435714285716,110.29046585714286,238.3427118571429,137.00244657142858,238.53880799376128
1316.911224489796,111.30882317784257,256.7770138483965,141.86572631195335,256.99501688523065
1462.2788775510205,112.56157018367347,274.1181390204082,147.09950944897957,274.3444188252221
1607.646530612245,114.02596034985423,287.80387655976676,152.19816868804665,288.0317427915
1753.0141836734695,115.71582623177842,294.6781666107872,156.6567233819242,294.8899904645813
1898.3818367346942,117.63272390476192,306.67436929251704,161.27099703401362,306.9134646915346
2043.7494897959186,119.76458115889214,321.8777641034986,166.50687485422742,322.1247311403121
2189.117142857143,122.1086659047619,333.2764441904762,171.61905314285715,333.52300766334196
2334.484795918367,124.61311592565598,345.270013287172,176.66574705539358,345.52640491490433
2479.852448979592,127.28858294460642,355.9977663702624,181.7863696793003,356.25375992028165
2625.2201020408165,130.1289714217687,365.7964120680272,186.83849305442178,366.0570226294232
2770.587755102041,133.12024198250728,378.5783533527697,192.1176635568513,378.8495265293155
2915.9554081632655,136.21514934013604,388.39910494557824,197.26139640136054,388.6676605237203
3061.3230612244897,139.44843040816326,398.47158083090375,202.37998620991254,398.7554212368209
3206.6907142857144,142.8175719897959,411.8541335714286,207.9405718877551,412.14908443756974
3352.0583673469387,146.29101248979592,419.91218579591833,213.2689100408163,420.19214691107186
3497.4260204081634,149.8284877915452,425.1813250728863,218.10098177842565,425.446911822244
3642.793673469388,153.46311804081634,431.7155747755102,222.83726220408164,431.991245206029
3788.1613265306123,157.2055147740525,444.13320633381926,228.10784690233237,444.4277044275102
3933.528979591837,161.03881195335276,448.3325827405248,233.05563387755103,448.60317742834343
4078.8966326530613,164.96016773469387,452.3127772857143,237.6315199659864,452.59102931397376
4224.264285714286,168.95014387755103,461.5160204081633,242.59938214285717,461.8039902023194
4369.631938775511,172.9381466054422,469.6134813605442,247.63976972108844,469.89503485716165
4514.999591836735,176.90041731778427,470.668583090379,252.11548959183673,470.92244306473555
4660.36724489796,180.9216589650146,469.95633353498545,255.97802620991254,470.21250015562487
4805.734897959184,184.9854751292517,476.78225496598645,260.27688385034014,477.0512802596308
4951.102551020409,189.08905823615163,483.33914970845484,264.77690801749276,483.6087473259901
5096.470204081634,193.23064783673473,486.80444636734694,269.125173659864,487.0620403148758
5241.8378571428575,197.3936298979592,489.6315840816327,273.2788036734694,489.8905859794999
5387.205510204082,201.57535900874637,495.5266814723032,277.65476412536447,495.791246094261
5532.573163265307,205.77081197959185,495.7439684285714,281.6691851836735,495.99054032505984
5677.940816326532,209.96272492711373,496.2068093294461,285.3872253644315,496.4575642533394
5823.308469387755,214.05319036734696,502.1977109591837,289.46413002040816,502.45608818511056
5968.67612244898,218.00797161807583,506.9471820262391,293.5853096793003,507.1969877779309
6114.043775510205,221.96404846209916,505.8268704373178,297.23665233236153,506.05152983787514
6259.4114285714295,225.91919085714287,504.5776845714286,300.506792,504.8021622837421
6404.779081632654,229.8697179300292,505.8686110787172,303.87884661078715,506.0922142354621
6550.146734693878,233.81478140136056,501.84909691156463,306.7877238367347,502.05450219770916
6695.514387755103,237.75528235422743,499.9740737244898,309.51740825801755,500.1854745767023
6840.882040816327,241.6810378134111,502.84833096209917,312.61707303207,503.06411470890106
6986.249693877552,245.5766585034014,504.2671157891157,315.7368768639456,504.4765995550491
7131.617346938777,249.43220007288633,503.5047186588921,318.6598997813411,503.61205567366517
7276.985000000001,253.24247566666668,501.8758513333333,321.36319266666663,501.3661919023605
7422.352653061225,256.96369865889216,497.6717210495626,323.78552513119536,496.9302655417517
7567.72030612245,260.5345530830904,489.96649509475213,325.6187974781341,489.9881360888679
7713.087959183675,264.01229342857147,488.5442847755102,327.58067987755106,488.25858608438597
7858.4556122448985,267.4497068877551,486.8129480320699,329.65069515306124,486.331704114222
8003.823265306123,270.83657820408166,481.7627786938775,331.3214481632653,481.7511142952728
8149.190918367348,274.1625372230321,481.09136959912536,333.16026831632655,480.7368773927071
8294.558571428572,277.4253053061224,478.5135232653061,334.97463591836737,477.8205842164334
8439.926224489796,280.61746327891154,472.56295102040815,336.3761507755102,471.8706024984411
8585.293877551021,283.7345915451895,466.7598583090379,337.5613174927114,465.87168820866276
8730.661530612246,286.77678240136055,460.72821879591834,338.5588563605442,459.1758474986384
8876.029183673469,289.6954283090379,449.95012540816333,339.0420291836735,448.56208183619606
9021.396836734693,292.48429726676386,438.60914666180764,339.025088425656,437.8109677979712
9166.764489795918,295.1868666122449,432.288642122449,339.17171327891157,431.4003856417882
9312.132142857143,297.8074931122449,425.7838158163265,339.3214757653061,424.75103997384946
9457.499795918367,300.33196317006804,417.95854438095233,339.2652001632653,417.0290279081481
9602.867448979592,302.74726988338193,410.6089717492711,339.0803511516035,409.7016589329695
9748.235102040817,305.02718192419826,404.57252827988333,338.9057648979592,403.26228838935526
9893.602755102042,307.1842002244898,395.4295550204081,338.45494879591837,393.88288681478247
10038.970408163266,309.22923491253647,384.2655245626821,337.61912514577256,382.42458852378957
10184.33806122449,311.1543947959184,372.5289681836735,336.4303358571429,370.322794089563
10329.705714285714,312.9484685714286,360.8924124489796,334.643283877551,358.9033378461405
10475.073367346939,314.61346561953354,351.8020866909621,332.74214385568513,349.4804453923831
10620.441020408163,316.1569866122449,345.612337292517,330.9939959591837,342.57013920824784
10765.808673469388,315.50464868804664,340.294887755102,328.71289231049565,336.89125926334907
10911.176326530613,309.75261893877547,335.654694585034,326.4637903673469,331.53696395197846
11056.543979591837,299.7900347011661,331.9841638994169,324.2552174562682,326.72680650351805
11201.911632653062,286.52423542274045,329.15446669096207,321.68363479591835,322.5322510890629
11347.279285714287,270.40288214285704,326.9387782857143,318.5298881428571,318.91711582684263
11492.64693877551,254.20555524781346,325.23816516034987,315.01486851311955,316.3725552025395
11638.014591836734,241.53002000680274,324.0714939659864,311.45804395918367,314.11079812745515
11783.382244897959,232.4867812682216,323.37247102040817,308.251720787172,311.7494714176734
11928.749897959184,215.65579915451895,323.127053680758,304.37061001457727,310.22915166663444
12074.117551020408,200.7826994285714,322.995898122449,300.1605753469388,308.7640856239827
12219.485204081633,188.06901082361512,322.71428276239067,296.03166745626817,306.7456253516316
12364.852857142858,173.6530085714285,322.2410434285714,291.58550457142854,303.7919560433531
12510.220510204083,150.2583960641398,321.56719891399416,286.19720889212823,301.1474566776602
12655.588163265307,127.50306562682199,320.7031012827988,279.9909148979591,299.30474339177226
12800.95581632653,110.86874346258509,319.6166720748299,273.90863804081636,298.18411773084534
12946.323469387755,107.55616005830903,318.3303513848397,269.11428549562686,297.1436397157435
13091.69112244898,108.0869683537415,316.8164741020408,265.2740817823129,296.2176535734694
13237.058775510204,110.6435956851312,315.0769249562682,262.07181615160346,294.7665450495627
13382.426428571429,115.99780403061226,313.0903766326531,259.56344397959185,292.2779936122449
13527.794081632654,109.94760763265303,310.8695711428571,256.41761059863944,290.0577370122449
13673.161734693878,105.44198720845479,308.46115386297373,253.0339250728863,287.858122303207
13818.529387755103,104.15241978231292,305.9033141496598,249.98178873469385,285.5765074367347
13963.897040816328,104.60597996355686,303.24546146501456,247.24762638483963,283.0570182776968
14109.264693877552,103.69348537900873,300.5092943440233,244.59625021865887,280.5317082966472
14254.632346938775,102.66619808163264,297.7011079591837,241.9504912857143,277.96733907653066
14400.0,102.22,294.87,239.43,275.38300000000004
