Time (s),T_min (C),T_max (C),T_ave (C),Thermal_Input_C
153.71,99.676,100.0,99.935,99.9589220240015
299.080306122449,99.93980288848397,100.79707567784256,100.03958983236151,100.80219002944396
444.450612244898,99.98578764489795,103.15686208163265,100.30792559183674,103.17604857713586
589.820918367347,99.99608729883381,105.62285169096211,100.69575315597667,105.65006512954521
735.191224489796,99.9981530829932,109.7192276462585,101.316640707483,109.76814248534767
880.561530612245,100.00097886000603,113.6653492013278,102.04502756027763,113.77641746319472
1025.931836734694,100.02349481049562,118.21083918367346,103.00387545189504,118.2785367978956
1171.302142857143,100.06821433333333,121.63147757142858,103.93750033333333,121.70218370816231
1316.672448979592,100.14019263848397,118.63287237609329,104.36629358600584,118.66563053376004
1462.042755102041,100.25834275510203,115.26160963945578,104.36546265986395,115.28681029189097
1607.4130612244899,100.40959008746356,118.01861300291544,104.69640134110787,118.12362105437144
1752.783367346939,100.61862505102042,122.6066377186589,105.513137106414,122.6734366556756
1898.153673469388,100.84238636734693,126.03798081632654,106.3816127755102,126.11076138565373
2043.523979591837,101.09539996355686,129.1440876457726,107.28319187317784,129.22294696881946
2188.894285714286,101.35702933333334,131.59951619047618,108.17444723809524,131.68437542452372
2334.264591836735,101.6370047813411,133.8398229373178,109.03248324344024,133.9502732094765
2479.634897959184,101.97298475218659,136.74055045189505,110.03969179300292,136.83176856938022
2625.005204081633,102.33556755782313,139.3117468367347,111.03035330612245,139.40546783974278
2770.375510204082,102.73812113702624,140.45621574344023,111.93099912536444,140.54205218054935
2915.745816326531,103.16400106122448,140.61336175510203,112.65604687755102,140.68847701901888
3061.1161224489797,103.61183131195335,139.6690482361516,113.20224836734694,139.7195468699863
3206.486428571429,104.14943627551021,138.998515,113.68519704081633,139.06691420820815
3351.856734693878,104.68753937414967,142.99757844897962,114.4932354829932,143.09717811666457
3497.2270408163267,105.24931858600584,149.1377851676385,115.79090167638485,149.25709354706555
3642.597346938776,105.80521676190476,152.98976439455782,117.11599246258504,153.11713356458372
3787.967653061225,106.37175674927114,154.99008281341108,118.2641412244898,155.1304290775764
3933.337959183674,107.00987696793003,155.4848225072886,119.3280087755102,155.5873343147436
4078.708265306123,107.64103691836735,155.14403746938777,120.12004408163266,155.2409224377333
4224.078571428572,108.30324030612245,156.29778316326534,120.9539974489796,156.40161222061286
4369.448877551021,108.9904448367347,158.58608488435374,121.9349925170068,158.70075259184108
4514.8191836734695,109.69321842565599,160.43937393586006,122.9237084548105,160.56166472254168
4660.189489795919,110.47240948250729,162.15092879008748,123.95210575072886,162.26169154789548
4805.559795918368,111.2331282585034,164.42262272108843,125.00450640816327,164.5386425914078
4950.930102040817,112.0030184037901,166.98796858600585,126.14446723760933,167.1081436049674
5096.300408163266,112.76650873469389,168.47533469387756,127.21313591836736,168.59462666920535
5241.670714285715,113.5478242857143,169.54011959183677,128.18978035714287,169.6637109769159
5387.041020408164,114.4048058309038,173.20032285714288,129.43246056851314,173.33823406455863
5532.411326530613,115.24052569387756,178.40954946258506,130.98365276870751,178.55670529032005
5677.781632653062,116.09062682215743,179.88039358600582,132.35539358600585,180.01135383078017
5823.151938775511,116.94085778231292,177.75340753741497,133.2014058435374,177.88953643507438
5968.522244897959,117.82809221574344,178.3049577405248,134.0920732069971,178.45890889218913
6113.892551020409,118.78695211370263,182.1537015379009,135.3689308309038,182.29354155883135
6259.262857142858,119.73271485714287,186.67522971428573,136.8355622857143,186.82947797779698
6404.633163265306,120.69477029883383,191.72727069970847,138.49684559037902,191.89161041759567
6550.003469387756,121.63992197278912,194.3816653197279,140.02789076190479,194.54179220916734
6695.373775510205,122.62374277696794,194.6157264723032,141.32506397959185,194.76523646796718
6840.744081632653,123.6788862973761,195.0085986005831,142.56635265306124,195.15132735432002
6986.114387755103,124.73103884353742,195.5410365442177,143.71000459863947,195.6806881180746
7131.484693877552,125.80838520408163,195.76642412536444,144.78933462099127,195.90173876981277
7276.8550000000005,126.87183900000001,195.66635300000002,145.758438,195.79485969951992
7422.22530612245,127.98778110787174,195.41910807580174,146.69520381924198,195.5436230017397
7567.595612244899,129.15005186588922,195.02470445335277,147.60809541545188,195.14622349509358
7712.9659183673475,130.2782741632653,194.34269812244895,148.41746717006802,194.45751589322313
7858.336224489797,131.40576516034986,193.38887106413992,149.1471876457726,193.49742065810952
8003.706530612246,132.48604702040817,191.81390726530609,149.7426897414966,191.89628577973983
8149.076836734695,133.59839875364432,189.5224415962099,150.22151456997085,189.59588413233453
8294.447142857143,134.71983591836735,188.2485057142857,150.70261499999998,188.3361252292766
8439.817448979591,135.78578679591834,188.1242588367347,151.25446979591837,188.21527944634238
8585.18775510204,136.82623483965014,184.627667638484,151.5565644314869,184.69418346956914
8730.55806122449,137.79589159183672,178.04346165986396,151.37575011564627,178.01704038551185
8875.928367346938,138.78147202623904,173.87006830903792,151.08491053935862,173.8589370211793
9021.298673469388,139.7468772813411,172.7759751239067,151.0337993367347,172.81699723670627
9166.668979591837,140.63161594557823,169.9091078639456,150.96083308843538,169.93537786174602
9312.039285714285,141.46217602040815,164.85155739795923,150.5971224489796,164.85589545588073
9457.409591836735,142.19980604081633,162.99494612244897,150.2825592653061,163.03434638294087
9602.779897959184,142.92176233965014,164.85159795918366,150.3908854956268,164.90301361229135
9748.150204081632,143.58478658892128,165.87,150.68215396501458,165.90670216236424
9893.520510204082,144.1659726394558,164.94499660544219,150.82989230612247,164.97437277669434
10038.890816326531,144.68567064744644,162.79736832152673,150.8192911690692,162.8147916242003
10184.26112244898,145.14078336734693,159.9078845782313,150.63958220408165,159.8824305030301
10329.631428571429,145.59738673469388,156.47238346938775,150.23895163265306,156.28883456861058
10475.001734693878,146.01414756559768,153.58525523323615,149.5922057361516,152.92528573078238
10620.372040816326,145.2548407346939,151.58807816326532,148.8326824489796,150.45092672658504
10765.742346938776,142.97416271865887,150.19245736151603,148.1348921282799,148.70978190653594
10911.112653061226,143.1497462857143,149.27016914285713,147.68864794557825,148.08620336425432
11056.482959183673,146.2916803206997,149.15444359329445,147.81424676384842,148.89607900321536
11201.853265306123,147.43326087463558,149.13836956268221,148.0694837026239,149.04403683631168
11347.223571428573,142.11829919047614,148.40291738095237,147.51614095238094,147.15571179880794
11492.59387755102,137.7582335276968,147.99935247813409,146.66843673469387,145.91077637284073
11637.96418367347,138.61829140816326,147.83603581632653,146.30525491836735,145.99332370771322
11783.334489795918,139.08314236151602,147.74533275510203,146.1406655102041,145.9694328566115
11928.704795918367,135.5878901239067,147.72180680029155,145.6020216180758,145.26764349370288
12074.075102040817,132.2423878095238,147.68797997278912,144.9136395102041,144.54235744418085
12219.445408163265,130.04148698979594,147.6222772959184,144.22575736151606,144.06091876354702
12364.815714285714,127.99441685714285,147.53751057142858,143.602574,143.55607431621513
12510.186020408164,125.15669157434401,147.4204119825073,142.85757489067055,142.88079055686546
12655.556326530612,122.74114655976678,147.26107848396504,142.0093446355685,142.28971097256107
12800.926632653061,122.6700061632653,147.08768804081632,141.45998767346939,142.15081113252938
12946.296938775511,122.1596637755102,146.8590836005831,140.93448972303207,141.87951145972792
13091.667244897959,119.2968540612245,146.60871010884352,140.24017492517007,141.05799446383176
13237.037551020409,115.87467556851311,146.3239248979592,139.36540950437316,140.1259489252757
13382.407857142858,111.90209596938773,145.9873243367347,138.28776908163263,139.0989842286092
13527.778163265306,108.71714730612246,145.65676949659866,137.26355285714286,138.17386562416044
13673.148469387756,107.82573145043732,145.26945415451897,136.32898473032068,137.69832813760505
13818.518775510205,107.23295697959183,144.88128326530614,135.60534195918368,137.2586881599801
13963.889081632653,105.89894255830903,144.44105496355684,134.8156100510204,136.63618664499634
14109.259387755103,104.31214673469388,143.93659214285714,133.94844367346937,135.93719451244868
14254.629693877552,102.25368303401359,143.45123435374148,133.11372308843536,135.1045150678412
14400.0,99.991,142.9,132.14,134.214134
