Time (s),T_min (C),T_max (C),T_ave (C),Thermal_Input_C
161.0,100.0,106.49,100.32,106.70833333333331
306.2959183673469,100.0,112.45520464852608,100.77203174603174,112.76232993197277
451.59183673469386,100.0,118.43269727891156,101.2947193877551,118.81632653061223
596.8877551020407,100.0,124.42581122448979,101.90237755102041,124.87032312925169
742.1836734693877,100.0,130.42330385487526,102.56428117913833,130.92431972789117
887.4795918367347,100.0,136.41746315192745,103.28455782312925,136.9783163265306
1032.7755102040815,100.0,142.41495578231292,104.0594693877551,143.03231292517003
1178.0714285714284,100.0,148.42870833333333,104.85389285714287,149.0863095238095
1323.3673469387754,100.0,154.4345170068027,105.69544671201814,155.14030612244895
1468.6632653061224,100.0,160.44008163265306,106.57529421768707,161.1943027210884
1613.9591836734694,100.0,166.4456462585034,107.49495464852608,167.24829931972786
1759.2551020408162,100.0,172.45121088435374,108.4474501133787,173.30229591836732
1904.5510204081631,100.01,178.45707142857142,109.42485714285715,179.35629251700678
2049.8469387755104,100.01160260770975,184.47554535147393,110.44353117913832,185.4102891156462
2195.142857142857,100.0196746031746,190.49725396825397,111.4686746031746,191.46428571428567
2340.438775510204,100.0310799319728,196.5045493197279,112.51255102040817,197.51828231292512
2485.734693877551,100.03915192743764,202.51818594104307,113.5780544217687,203.57227891156458
2631.030612244898,100.05167176870748,208.52543452380954,114.67773724489795,209.62627551020404
2776.326530612245,100.07588775510203,214.54212585034014,115.80868707482993,215.6802721088435
2921.622448979592,100.1001037414966,220.55577976190477,116.95503146258504,221.73426870748295
3066.918367346939,100.12575963718821,226.57273242630384,118.13454648526077,227.7882653061224
3212.2142857142853,100.15804761904762,232.58636904761903,119.33727380952381,233.84226190476184
3357.5102040816323,100.2041275510204,238.6237976190476,120.51620918367347,239.8962585034013
3502.8061224489793,100.24625793650794,244.6403089569161,121.72302947845805,245.95025510204076
3648.1020408163263,100.30295918367347,250.65414285714286,122.95095918367346,252.00425170068021
3793.3979591836733,100.36619897959183,256.6709155328798,124.2043820861678,258.0582482993197
3938.6938775510203,100.43884693877551,262.684552154195,125.47975736961452,264.11224489795916
4083.9897959183672,100.51341071428571,268.7021607142857,126.77882397959183,270.1662414965986
4229.285714285714,100.60219047619047,274.72922222222223,128.09725396825397,276.2202380952381
4374.581632653061,100.7001862244898,280.7725059523809,129.41110289115645,282.27423469387753
4519.877551020408,100.81239795918367,286.78909863945574,130.7163775510204,288.328231292517
4665.173469387755,100.93347789115647,292.8028511904762,132.0489523809524,294.38222789115645
4810.469387755102,101.0594693877551,298.8205238095238,133.40750340136054,300.4362244897959
4955.765306122448,101.20476530612245,304.83667517006796,134.78635544217687,306.4902210884353
5101.061224489796,101.35173299319727,310.8525408163265,136.18392517006802,312.5442176870748
5246.357142857142,101.5154365079365,316.8772817460317,137.59853174603174,318.5982142857142
5391.65306122449,101.69331632653062,322.8956530612245,139.03120408163267,324.65221088435374
5536.948979591836,101.87793197278911,328.9558911564626,140.41750680272108,330.70620748299314
5682.244897959184,102.07846485260771,334.96826077097506,141.8356439909297,336.76020408163265
5827.54081632653,102.2898112244898,340.98923214285713,143.2754081632653,342.81420068027205
5972.836734693878,102.51351473922902,347.0083446712018,144.73700680272108,348.86819727891157
6118.132653061224,102.7485544217687,353.0295773809524,146.21560969387755,354.92219387755097
6263.428571428571,102.99425,359.04724999999996,147.7119642857143,360.9761904761904
6408.724489795918,103.25416156462585,365.0856162131519,149.21981972789115,367.0301870748299
6554.020408163265,103.52604081632653,371.1375952380952,150.7157074829932,373.08418367346934
6699.316326530612,103.81663265306123,377.15688775510205,152.20260204081632,379.1381802721088
6844.612244897959,104.11115986394557,383.17794047619043,153.70792857142857,385.19217687074826
6989.908163265306,104.42596768707483,389.1956130952381,155.24168707482994,391.2461734693877
7135.204081632653,104.74902040816326,394.5516326530612,156.77089795918366,396.59591836734694
7280.499999999999,105.08545833333332,398.019625,158.22549999999998,400.0
7425.7959183673465,105.43839002267573,398.10159863945574,159.48276643990928,400.0
7571.091836734693,105.79773724489796,398.1475229591837,160.66321173469387,400.0
7716.3877551020405,106.17770068027211,398.1838469387755,161.7707925170068,400.0
7861.683673469387,106.56963888888889,398.2134472789116,162.83271541950114,400.0
8006.9795918367345,106.97027551020409,398.23766326530614,163.8680255102041,400.0
8152.275510204081,107.38590702947846,398.2618792517007,164.8551700680272,400.0
8297.571428571428,107.8127619047619,398.2830476190476,165.8207619047619,400.0
8442.867346938774,108.26075765306122,398.2951556122449,166.76182653061224,400.0
8588.163265306122,108.71601700680272,398.30968480725625,167.6723492063492,400.0
8733.459183673469,109.18049234693878,398.3287431972789,168.57349829931974,400.0
8878.755102040815,109.66350340136054,398.34431972789116,169.45221088435375,400.0
9024.051020408162,110.16067857142858,398.353587585034,170.31113095238095,400.0
9169.34693877551,110.66921428571429,398.3656955782313,171.15299489795916,400.0
9314.642857142857,111.18815476190476,398.38040476190474,171.98064285714284,400.0
9459.938775510203,111.72102040816327,398.39491156462583,172.7941632653061,400.0
9605.23469387755,112.26821995464852,398.4046797052154,173.59329081632652,400.0
9750.530612244896,112.81986734693876,398.41412755102044,174.38829081632653,400.0
9895.826530612245,113.38930612244897,398.4262355442177,175.16283928571428,400.0
10041.122448979591,113.97048979591837,398.4355623582766,175.92842403628117,400.0
10186.418367346938,114.55167346938775,398.4672576530612,176.67164030612244,400.0
10331.714285714284,115.13789682539682,398.4950396825397,177.37845238095238,400.0
10477.010204081633,115.72870833333333,398.5046675170068,178.07604846938776,400.0
10622.30612244898,116.32877551020408,398.51,178.76620408163265,400.0
10767.602040816326,116.94009750566893,398.5159223356009,179.44747619047618,400.0
10912.897959183672,117.55556632653061,398.52599149659864,180.1255238095238,400.0
11058.193877551019,118.1757738095238,398.53539965986397,180.7927721088435,400.0
11203.489795918367,118.80599659863945,398.54,181.45641156462585,400.0
11348.785714285714,119.44040476190476,398.5473154761905,182.1150357142857,400.0
11494.08163265306,120.07630272108844,398.55,182.7625850340136,400.0
11639.377551020407,120.72269897959183,398.55653146258504,183.4061675170068,400.0
11784.673469387755,121.37077097505669,398.5657596371882,184.05077097505668,400.0
11929.969387755102,122.02036224489795,398.57,184.68886734693876,400.0
12075.265306122448,122.68204931972788,398.5778554421769,185.31848299319728,400.0
12220.561224489795,123.33802551020408,398.58,185.9480986394558,400.0
12365.857142857141,123.99892857142856,398.5870714285714,186.57064285714284,400.0
12511.15306122449,124.66792800453514,398.59,187.19121031746033,400.0
12656.448979591836,125.33580782312926,398.596287414966,187.80437074829933,400.0
12801.744897959183,126.01014285714285,398.6,188.41816581632654,400.0
12947.04081632653,126.68118820861677,398.6070022675737,189.0251700680272,400.0
13092.336734693876,127.35623809523808,398.61,189.63056972789116,400.0
13237.632653061224,128.03428571428572,398.61647959183676,190.22948979591837,400.0
13382.92857142857,128.71233333333333,398.62,190.82454166666665,400.0
13528.224489795917,129.39038095238092,398.62893537414965,191.42676870748298,400.0
13673.520408163264,130.07579081632653,398.63,192.01744387755102,400.0
13818.816326530612,130.7564761904762,398.6381513605442,192.60126530612246,400.0
13964.112244897959,131.44136337868483,398.64,193.1892885487528,400.0
14109.408163265305,132.12257142857143,398.6473673469388,193.7736326530612,400.0
14254.704081632652,132.8100943877551,398.65,194.3548163265306,400.0
14400.0,133.49,398.65,194.93,400.0
