Time (s),T_min (C),T_max (C),T_ave (C),Thermal_Input_C
161.0,100.0,106.51,100.35,106.70833333333331
306.2959183673469,100.0,112.49134863945578,100.85046371882086,112.76232993197277
451.59183673469386,100.0,118.48191326530613,101.4307993197279,118.81632653061223
596.8877551020407,100.0,124.47669387755101,102.11120408163265,124.87032312925169
742.1836734693877,100.0,130.48225850340134,102.85382766439909,130.92431972789117
887.4795918367347,100.0,136.48818310657597,103.66851757369614,136.9783163265306
1032.7755102040815,100.0,142.50181972789113,104.53222108843538,143.03231292517003
1178.0714285714284,100.0,148.5187083333333,105.43169642857143,149.0863095238095
1323.3673469387754,100.0,154.53575963718822,106.38160090702948,155.14030612244895
1468.6632653061224,100.0,160.5493962585034,107.3663843537415,161.1943027210884
1613.9591836734694,100.01,166.56636621315192,108.40575396825398,167.24829931972786
1759.2551020408162,100.01,172.5800028344671,109.47932936507937,173.30229591836732
1904.5510204081631,100.02,178.5970714285714,110.5978163265306,179.35629251700678
2049.8469387755104,100.0232052154195,184.61875056689343,111.74237811791383,185.4102891156462
2195.142857142857,100.03934920634921,190.65660317460316,112.91281746031746,191.46428571428567
2340.438775510204,100.06215986394558,196.6656292517007,114.09198979591837,197.51828231292512
2485.734693877551,100.07830385487529,202.6873378684807,115.30278911564626,203.57227891156458
2631.030612244898,100.11250765306123,208.70627040816325,116.54776785714284,209.62627551020404
2776.326530612245,100.14981292517007,214.73408843537416,117.8279387755102,215.6802721088435
2921.622448979592,100.1902074829932,220.75577976190476,119.13570578231293,221.73426870748295
3066.918367346939,100.24151927437642,226.7741723356009,120.47334467120182,227.7882653061224
3212.2142857142853,100.30609523809524,232.79588095238094,121.8375119047619,233.84226190476184
3357.5102040816323,100.37963095238095,238.8437976190476,123.18409523809524,239.8962585034013
3502.8061224489793,100.46554818594105,244.86263151927437,124.55180328798185,245.95025510204076
3648.1020408163263,100.55532653061225,250.88473469387753,125.94983673469387,252.00425170068021
3793.3979591836733,100.66699829931973,256.9127154195011,127.38397959183673,258.0582482993197
3938.6938775510203,100.78807823129252,262.93442403628114,128.83693877551022,264.11224489795916
4083.9897959183672,100.92298979591837,268.9621607142857,130.3175612244898,270.1662414965986
4229.285714285714,101.07096825396825,274.9919047619048,131.81895238095237,276.2202380952381
4374.581632653061,101.22697704081632,281.04250595238096,133.31921173469388,282.27423469387753
4519.877551020408,101.4096768707483,287.06125850340135,134.8160544217687,288.328231292517
4665.173469387755,101.595912414966,293.0831989795919,136.33416921768708,294.38222789115645
4810.469387755102,101.80420408163266,299.11297959183673,137.87925170068027,300.4362244897959
4955.765306122448,102.02823299319728,305.1397176870748,139.45937585034014,306.4902210884353
5101.061224489796,102.26343537414967,311.1625408163265,141.05234523809526,312.5442176870748
5246.357142857142,102.51315476190477,317.1923214285714,142.67152777777775,318.5982142857142
5391.65306122449,102.78130612244898,323.22476530612244,144.30629591836734,324.65221088435374
5536.948979591836,103.07189795918367,329.2788869047619,145.89843452380953,330.70620748299314
5682.244897959184,103.37269727891156,335.3016632653061,147.52070634920636,336.76020408163265
5827.54081632653,103.69192857142856,341.331443877551,149.16521938775512,342.81420068027205
5972.836734693878,104.03383219954648,347.3583446712018,150.8418820861678,348.86819727891157
6118.132653061224,104.38283163265307,353.38100510204083,152.5313086734694,354.92219387755097
6263.428571428571,104.75314285714285,359.4107857142857,154.24560714285712,360.9761904761904
6408.724489795918,105.14436111111111,365.4556162131519,155.97140646258504,367.0301870748299
6554.020408163265,105.54355782312925,371.5075952380952,157.6852380952381,373.08418367346934
6699.316326530612,105.96170918367348,377.5301275510204,159.3933163265306,379.1381802721088
6844.612244897959,106.3928044217687,383.5599081632653,161.1233469387755,385.19217687074826
6989.908163265306,106.84895153061224,389.5896887755102,162.8750493197279,391.2461734693877
7135.204081632653,107.32322448979592,394.94751020408165,164.63044897959185,396.59591836734694
7280.499999999999,107.80495833333333,398.409625,166.31145833333332,400.0
7425.7959183673465,108.31038548752834,398.4915986394558,167.76916099773243,400.0
7571.091836734693,108.83033673469387,398.53752295918366,169.14082653061223,400.0
7716.3877551020405,109.36770408163265,398.569231292517,170.43464285714285,400.0
7861.683673469387,109.92376984126984,398.5934472789116,171.67684637188208,400.0
8006.9795918367345,110.49391836734694,398.61766326530613,172.88166836734692,400.0
8152.275510204081,111.08302154195012,398.63791950113375,174.04228458049886,400.0
8297.571428571428,111.68542857142857,398.6530476190476,175.17733333333334,400.0
8442.867346938774,112.30809183673469,398.6703112244898,176.2740051020408,400.0
8588.163265306122,112.95223469387756,398.6848424036281,177.34919727891156,400.0
8733.459183673469,113.61043792517007,398.69874319727893,178.4059574829932,400.0
8878.755102040815,114.28285714285714,398.71431972789117,179.4342857142857,400.0
9024.051020408162,114.96807993197278,398.723587585034,180.44418197278912,400.0
9169.34693877551,115.67603911564626,398.7356955782313,181.4313418367347,400.0
9314.642857142857,116.39821428571429,398.7452023809524,182.40428571428572,400.0
9459.938775510203,117.12960544217687,398.75491156462584,183.36801360544217,400.0
9605.23469387755,117.87053287981858,398.7833985260771,184.294126984127,400.0
9750.530612244896,118.6159081632653,398.8141275510204,185.18718367346938,400.0
9895.826530612245,119.37283928571429,398.82,186.0527236394558,400.0
10041.122448979591,120.13842403628118,398.8255623582766,186.90960997732427,400.0
10186.418367346938,120.91434948979591,398.8354515306122,187.7561556122449,400.0
10331.714285714284,121.6988492063492,398.84503968253966,188.58908730158728,400.0
10477.010204081633,122.48805612244898,398.85,189.41739115646257,400.0
10622.30612244898,123.29395918367348,398.8567755102041,190.23395918367345,400.0
10767.602040816326,124.10223356009071,398.86592233560094,191.0422335600907,400.0
10912.897959183672,124.91742176870748,398.87,191.8454387755102,400.0
11058.193877551019,125.74076530612244,398.87539965986394,192.63916666666665,400.0
11203.489795918367,126.56410884353741,398.88,193.42848639455784,400.0
11348.785714285714,127.39476785714285,398.88731547619045,194.20819047619048,400.0
11494.08163265306,128.23336054421767,398.89,194.98310204081633,400.0
11639.377551020407,129.07720238095237,398.896531462585,195.75801360544216,400.0
11784.673469387755,129.9247619047619,398.9057596371882,196.5214058956916,400.0
11929.969387755102,130.77232142857142,398.91,197.27634183673467,400.0
12075.265306122448,131.61988095238095,398.91,198.02703741496597,400.0
12220.561224489795,132.47408276643992,398.91664229024946,198.77773299319728,400.0
12365.857142857141,133.33207142857142,398.92,199.52135714285714,400.0
12511.15306122449,134.188679138322,398.92611961451246,200.25688492063492,400.0
12656.448979591836,135.04640646258503,398.93,200.9872448979592,400.0
12801.744897959183,135.90607397959184,398.9383954081633,201.7137244897959,400.0
12947.04081632653,136.7692426303855,398.94,202.44020408163266,400.0
13092.336734693876,137.63802040816327,398.94761139455784,203.15907227891157,400.0
13237.632653061224,138.5033163265306,398.95,203.87020408163266,400.0
13382.92857142857,139.36474404761904,398.95682738095235,204.5828154761905,400.0
13528.224489795917,140.22441156462585,398.96,205.28825170068026,400.0
13673.520408163264,141.0951224489796,398.96736224489797,205.99051530612243,400.0
13818.816326530612,141.95874659863946,398.97,206.69277891156463,400.0
13964.112244897959,142.82183390022675,398.97,207.3882029478458,400.0
14109.408163265305,143.68308163265306,398.9773673469388,208.0799387755102,400.0
14254.704081632652,144.55222448979592,398.98,208.7700943877551,400.0
14400.0,145.41,398.98,209.46,400.0
