Time (s),T_min (C),T_max (C),T_ave (C),Thermal_Input_C
161.0,100.0,106.51,100.28,106.70833333333331
306.2959183673469,100.0,112.49134863945578,100.6916717687075,112.76232993197277
451.59183673469386,100.0,118.48191326530613,101.1586394557823,118.81632653061223
596.8877551020407,100.0,124.47669387755101,101.71619897959184,124.87032312925169
742.1836734693877,100.0,130.48225850340134,102.32159863945579,130.92431972789117
887.4795918367347,100.0,136.48818310657597,102.97167800453515,136.9783163265306
1032.7755102040815,100.0,142.50181972789113,103.68201360544217,143.03231292517003
1178.0714285714284,100.0,148.5187083333333,104.40535714285714,149.0863095238095
1323.3673469387754,100.0,154.53575963718822,105.17426303854874,155.14030612244895
1468.6632653061224,100.0,160.5493962585034,105.98146258503401,161.1943027210884
1613.9591836734694,100.0,166.56636621315192,106.82775510204081,167.24829931972786
1759.2551020408162,100.0,172.5800028344671,107.6995306122449,173.30229591836732
1904.5510204081631,100.0,178.5970714285714,108.60278571428572,179.35629251700678
2049.8469387755104,100.0,184.61875056689343,109.53750510204081,185.4102891156462
2195.142857142857,100.0,190.65660317460316,110.48192857142857,191.46428571428567
2340.438775510204,100.0010799319728,196.67454931972787,111.43175170068027,197.51828231292512
2485.734693877551,100.00915192743764,202.68818594104306,112.41653514739228,203.57227891156458
2631.030612244898,100.01,208.70627040816325,113.43105017006802,209.62627551020404
2776.326530612245,100.01196258503401,214.73408843537416,114.46906122448979,215.6802721088435
2921.622448979592,100.02005187074829,220.75577976190476,115.53461649659864,221.73426870748295
3066.918367346939,100.03143990929705,226.77561224489796,116.61726757369615,227.7882653061224
3212.2142857142853,100.03951190476191,232.80539285714283,117.72313095238096,233.84226190476184
3357.5102040816323,100.05137585034014,238.8437976190476,118.80657823129252,239.8962585034013
3502.8061224489793,100.06464512471655,244.86263151927437,119.92515873015873,245.95025510204076
3648.1020408163263,100.08118367346938,250.88473469387753,121.05622448979592,252.00425170068021
3793.3979591836733,100.10539965986393,256.9127154195011,122.21278344671202,258.0582482993197
3938.6938775510203,100.1296156462585,262.93442403628114,123.3912947845805,264.11224489795916
4083.9897959183672,100.1557474489796,268.9621607142857,124.59158163265306,270.1662414965986
4229.285714285714,100.19073015873016,274.9919047619048,125.8050634920635,276.2202380952381
4374.581632653061,100.22452721088435,281.04250595238096,127.02204846938776,282.27423469387753
4519.877551020408,100.27295918367348,287.06125850340135,128.22829931972788,288.328231292517
4665.173469387755,100.32139115646258,293.0831989795919,129.4561700680272,294.38222789115645
4810.469387755102,100.37227891156462,299.11297959183673,130.71540136054423,300.4362244897959
4955.765306122448,100.43129761904761,305.1397176870748,131.98680272108842,306.4902210884353
5101.061224489796,100.49003061224491,311.1625408163265,133.27887925170066,312.5442176870748
5246.357142857142,100.56519841269842,317.1923214285714,134.58325396825396,318.5982142857142
5391.65306122449,100.64621428571428,323.22476530612244,135.90410204081633,324.65221088435374
5536.948979591836,100.73097023809524,329.2788869047619,137.1905450680272,330.70620748299314
5682.244897959184,100.8208299319728,335.3016632653061,138.49800907029478,336.76020408163265
5827.54081632653,100.9199056122449,341.331443877551,139.8255025510204,342.81420068027205
5972.836734693878,101.03031746031745,347.3583446712018,141.17668934240362,348.86819727891157
6118.132653061224,101.14427721088435,353.38100510204083,142.5413324829932,354.92219387755097
6263.428571428571,101.26535714285714,359.4107857142857,143.91660714285712,360.9761904761904
6408.724489795918,101.39396201814058,365.4556162131519,145.30714512471656,367.0301870748299
6554.020408163265,101.53302040816327,371.51034693877546,146.69094217687075,373.08418367346934
6699.316326530612,101.68155612244898,377.53688775510204,148.06724489795917,379.1381802721088
6844.612244897959,101.83754761904763,383.5599081632653,149.45825170068025,385.19217687074826
6989.908163265306,102.00705952380953,389.5896887755102,150.86685459183673,391.2461734693877
7135.204081632653,102.18069387755102,394.9516326530612,152.2731836734694,396.59591836734694
7280.499999999999,102.359375,398.419625,153.61916666666664,400.0
7425.7959183673465,102.54999433106575,398.49799886621315,154.786768707483,400.0
7571.091836734693,102.75263010204081,398.53752295918366,155.8856581632653,400.0
7716.3877551020405,102.96308163265306,398.569231292517,156.91771428571428,400.0
7861.683673469387,103.18102551020408,398.5934472789116,157.90789115646257,400.0
8006.9795918367345,103.40663265306122,398.61766326530613,158.8650357142857,400.0
8152.275510204081,103.6487925170068,398.63791950113375,159.78349206349208,400.0
8297.571428571428,103.894,398.6530476190476,160.6824761904762,400.0
8442.867346938774,104.15342346938776,398.6703112244898,161.55604846938775,400.0
8588.163265306122,104.4197993197279,398.6848424036281,162.40360997732427,400.0
8733.459183673469,104.69491836734694,398.69874319727893,163.23289710884353,400.0
8878.755102040815,104.98551020408163,398.71431972789117,164.04197278911565,400.0
9024.051020408162,105.27968962585034,398.723587585034,164.83960544217686,400.0
9169.34693877551,105.5880850340136,398.7356955782313,165.6145170068027,400.0
9314.642857142857,105.90289285714286,398.7452023809524,166.3790238095238,400.0
9459.938775510203,106.22752380952382,398.75491156462584,167.12960544217688,400.0
9605.23469387755,106.56654761904763,398.7787188208617,167.85649376417234,400.0
9750.530612244896,106.90969897959184,398.80412755102043,168.56114285714284,400.0
9895.826530612245,107.26083078231292,398.8162355442177,169.23919047619046,400.0
10041.122448979591,107.62030612244898,398.8255623582766,169.90055102040816,400.0
10186.418367346938,107.98899744897959,398.8354515306122,170.55438265306123,400.0
10331.714285714284,108.37190476190476,398.84,171.2031746031746,400.0
10477.010204081633,108.75936054421769,398.8446675170068,171.84271088435375,400.0
10622.30612244898,109.1535918367347,398.85,172.47232653061224,400.0
10767.602040816326,109.55611678004536,398.85592233560095,173.09601984126982,400.0
10912.897959183672,109.96371088435373,398.86599149659867,173.70957482993197,400.0
11058.193877551019,110.3861819727891,398.87,174.3149744897959,400.0
11203.489795918367,110.81226190476191,398.8752074829932,174.92037414965986,400.0
11348.785714285714,111.24335714285715,398.88,175.51845833333334,400.0
11494.08163265306,111.68552721088436,398.8862823129252,176.1086088435374,400.0
11639.377551020407,112.13166411564626,398.89,176.69351020408163,400.0
11784.673469387755,112.58253968253968,398.8957596371882,177.27469387755104,400.0
11929.969387755102,113.04415051020408,398.9,177.85013010204082,400.0
12075.265306122448,113.50850680272109,398.90785544217687,178.41920578231293,400.0
12220.561224489795,113.97525283446711,398.91,178.98496031746032,400.0
12365.857142857141,114.45285714285713,398.91707142857143,179.5452857142857,400.0
12511.15306122449,114.9371768707483,398.92,180.10225340136054,400.0
12656.448979591836,115.42149659863945,398.92,180.65922108843537,400.0
12801.744897959183,115.90581632653061,398.9283954081633,181.20779336734694,400.0
12947.04081632653,116.40414058956915,398.93,181.74915192743762,400.0
13092.336734693876,116.90206717687074,398.93761139455785,182.29251275510202,400.0
13237.632653061224,117.40173469387756,398.94,182.82765306122448,400.0
13382.92857142857,117.90675,398.94,183.36040476190476,400.0
13528.224489795917,118.4152857142857,398.94893537414964,183.89315646258504,400.0
13673.520408163264,118.93118367346938,398.95,184.41854591836736,400.0
13818.816326530612,119.45050850340137,398.95,184.94050850340136,400.0
13964.112244897959,119.96773242630385,398.956839569161,185.45773242630386,400.0
14109.408163265305,120.49416326530611,398.96,185.97679591836734,400.0
14254.704081632652,121.01743962585034,398.96,186.48796428571427,400.0
14400.0,121.54,398.97,187.0,400.0
