Time (s),T_min (C),T_max (C),T_ave (C),Thermal_Input_C
161.0,100.0,106.51,100.36,106.70833333333331
306.2959183673469,100.0,112.49942063492064,100.88467970521542,112.76232993197277
451.59183673469386,100.0,118.49191326530612,101.49844727891157,118.81632653061223
596.8877551020407,100.0,124.49669387755102,102.2065,124.87032312925169
742.1836734693877,100.0,130.50225850340135,102.99755555555555,130.92431972789117
887.4795918367347,100.0,136.50818310657598,103.84103741496598,136.9783163265306
1032.7755102040815,100.0,142.52181972789114,104.76124489795917,143.03231292517003
1178.0714285714284,100.0,148.54846428571426,105.70096428571428,149.0863095238095
1323.3673469387754,100.00124263038549,154.5570022675737,106.70029931972789,155.14030612244895
1468.6632653061224,100.00931462585035,160.57871088435374,107.74158673469388,161.1943027210884
1613.9591836734694,100.01071995464854,166.59708616780046,108.83151360544218,167.24829931972786
1759.2551020408162,100.01879195011338,172.6187947845805,109.9696649659864,173.30229591836732
1904.5510204081631,100.03029591836734,178.63707142857143,111.1395918367347,179.35629251700678
2049.8469387755104,100.0432052154195,184.65875056689345,112.35359637188209,185.4102891156462
2195.142857142857,100.05934920634921,190.69660317460315,113.58053968253968,191.46428571428567
2340.438775510204,100.08431972789116,196.71562925170068,114.83062925170067,197.51828231292512
2485.734693877551,100.11660770975057,202.73733786848072,116.10600453514739,203.57227891156458
2631.030612244898,100.15334353741497,208.75627040816326,117.42361904761904,209.62627551020404
2776.326530612245,100.2037380952381,214.78408843537414,118.78363945578232,215.6802721088435
2921.622448979592,100.2603112244898,220.80583163265305,120.15606887755102,221.73426870748295
3066.918367346939,100.33439909297051,226.8341723356009,121.57774376417233,227.7882653061224
3212.2142857142853,100.41511904761904,232.85588095238094,123.02263095238095,233.84226190476184
3357.5102040816323,100.51100680272108,238.9037976190476,124.43372619047618,239.8962585034013
3502.8061224489793,100.61483843537415,244.92495408163265,125.88502891156462,245.95025510204076
3648.1020408163263,100.73651020408164,250.95414285714284,127.36338775510204,252.00425170068021
3793.3979591836733,100.87419784580499,256.97451530612244,128.8737783446712,258.0582482993197
3938.6938775510203,101.02756575963718,263.00429591836735,130.41552947845804,264.11224489795916
4083.9897959183672,101.19873724489796,269.03407653061225,131.9809719387755,270.1662414965986
4229.285714285714,101.38438095238095,275.0692222222222,133.5684603174603,276.2202380952381
4374.581632653061,101.58037244897959,281.11363775510205,135.1571343537415,282.27423469387753
4519.877551020408,101.80263605442177,287.14125850340133,136.73981292517007,288.328231292517
4665.173469387755,102.03730357142857,293.16319897959187,138.34695153061224,294.38222789115645
4810.469387755102,102.29402721088435,299.1929795918367,139.98644217687075,300.4362244897959
4955.765306122448,102.56648809523809,305.2227602040816,141.65588605442179,306.4902210884353
5101.061224489796,102.85346598639455,311.25254081632653,143.3457193877551,312.5442176870748
5246.357142857142,103.17079365079364,317.2823214285714,145.06176587301587,318.5982142857142
5391.65306122449,103.49485714285714,323.31476530612247,146.79339795918366,324.65221088435374
5536.948979591836,103.83987244897959,329.3688869047619,148.4824005102041,330.70620748299314
5682.244897959184,104.20991723356009,335.39166326530614,150.20153628117913,336.76020408163265
5827.54081632653,104.59298724489796,341.421443877551,151.94291326530612,342.81420068027205
5972.836734693878,104.99687074829932,347.45122448979595,153.71931972789116,348.86819727891157
6118.132653061224,105.4128256802721,353.4810051020408,155.5141581632653,354.92219387755097
6263.428571428571,105.86082142857143,359.5107857142857,157.33389285714284,360.9761904761904
6408.724489795918,106.32198582766439,365.55561621315195,159.1603185941043,367.0301870748299
6554.020408163265,106.80006802721088,371.6103469387755,160.98000340136053,373.08418367346934
6699.316326530612,107.29410714285714,377.64012755102044,162.7954336734694,379.1381802721088
6844.612244897959,107.80657823129252,383.6699081632653,164.631056122449,385.19217687074826
6989.908163265306,108.3434056122449,389.6996887755102,166.49173044217687,391.2461734693877
7135.204081632653,108.89857142857143,395.0575102040816,168.35404081632652,396.59591836734694
7280.499999999999,109.47129166666666,398.519625,170.13779166666666,400.0
7425.7959183673465,110.06638321995464,398.60159863945574,171.68875850340137,400.0
7571.091836734693,110.67039795918367,398.6475229591837,173.15088775510205,400.0
7716.3877551020405,111.30462925170067,398.679231292517,174.53695238095239,400.0
7861.683673469387,111.95307653061225,398.7034472789116,175.86615306122448,400.0
8006.9795918367345,112.61457142857142,398.72383163265306,177.15848979591837,400.0
8152.275510204081,113.30449829931972,398.7418792517007,178.3979223356009,400.0
8297.571428571428,114.00980952380952,398.7630476190476,179.60866666666666,400.0
8442.867346938774,114.73449234693877,398.7751556122449,180.7900943877551,400.0
8588.163265306122,115.48034353741497,398.7896848072562,181.9427789115646,400.0
8733.459183673469,116.23978231292516,398.8043715986395,183.0721870748299,400.0
8878.755102040815,117.01901360544217,398.81431972789113,184.17316326530613,400.0
9024.051020408162,117.8103681972789,398.823587585034,185.2557074829932,400.0
9169.34693877551,118.6272993197279,398.83569557823125,186.32121088435375,400.0
9314.642857142857,119.46104761904762,398.8452023809524,187.36590476190474,400.0
9459.938775510203,120.29398639455782,398.8696462585034,188.37292517006802,400.0
9605.23469387755,121.13136904761905,398.89935941043086,189.3322052154195,400.0
9750.530612244896,121.98305612244897,398.91,190.28194897959185,400.0
9895.826530612245,122.84272363945578,398.9162355442177,191.2139013605442,400.0
10041.122448979591,123.71629705215419,398.92556235827664,192.1341088435374,400.0
10186.418367346938,124.59796173469388,398.93,193.0434132653061,400.0
10331.714285714284,125.48940476190477,398.9350396825397,193.93940476190477,400.0
10477.010204081633,126.39006377551021,398.9446675170068,194.8307287414966,400.0
10622.30612244898,127.29816326530613,398.95,195.71461224489795,400.0
10767.602040816326,128.20922392290248,398.9559223356009,196.58961224489795,400.0
10912.897959183672,129.13134523809524,398.96599149659863,197.4553962585034,400.0
11058.193877551019,130.06096088435373,398.97,198.3069642857143,400.0
11203.489795918367,130.9909761904762,398.9752074829932,199.15452380952382,400.0
11348.785714285714,131.92329166666667,398.98,200.00208333333333,400.0
11494.08163265306,132.8650306122449,398.9862823129252,200.8370782312925,400.0
11639.377551020407,133.80945408163265,398.99,201.6641394557823,400.0
11784.673469387755,134.75387755102042,398.9957596371882,202.48748299319726,400.0
11929.969387755102,135.70404846938774,399.0,203.30507908163264,400.0
12075.265306122448,136.6527244897959,399.0078554421769,204.11631462585032,400.0
12220.561224489795,137.6037902494331,399.0166422902494,204.91758673469386,400.0
12365.857142857141,138.55864285714284,399.02,205.71671428571426,400.0
12511.15306122449,139.5182341269841,399.0261196145124,206.50972222222222,400.0
12656.448979591836,140.47670578231293,399.03,207.2986819727891,400.0
12801.744897959183,141.43323724489795,399.03,208.08570153061223,400.0
12947.04081632653,142.39326984126984,399.0370022675737,208.86221768707483,400.0
13092.336734693876,143.35130017006801,399.04,209.63712925170066,400.0
13237.632653061224,144.3045918367347,399.04647959183677,210.4055612244898,400.0
13382.92857142857,145.2593630952381,399.05,211.17695238095237,400.0
13528.224489795917,146.21589455782313,399.05,211.9339931972789,400.0
13673.520408163264,147.17610714285715,399.05736224489794,212.69205102040814,400.0
13818.816326530612,148.1339574829932,399.06,213.4453843537415,400.0
13964.112244897959,149.08706916099774,399.066839569161,214.1960799319728,400.0
14109.408163265305,150.0346530612245,399.07,214.9394081632653,400.0
14254.704081632652,150.9885518707483,399.079475340136,215.6779957482993,400.0
14400.0,151.94,399.08,216.42,400.0
