Time (s),T_min (C),T_max (C),T_ave (C),Thermal_Input_C
153.97,103.6,103.93,103.63,103.9402487190048
299.3376530612245,103.6,104.25226892128279,103.68230042274052,104.26390375325842
444.705306122449,103.6,104.58648042176871,103.74572549659864,104.59373574604042
590.0729591836736,103.6,104.9452573979592,103.8234874052478,104.94506005711025
735.440612244898,103.600764707483,105.31747066666667,103.90764707482994,105.34827188531
880.8082653061225,103.61048834287696,105.79246377234033,104.00586011452357,105.81300943222043
1026.175918367347,103.62086970845482,106.2717460058309,104.13043650145772,106.31308211013499
1171.5435714285716,103.63233914285713,106.77315685714285,104.25754357142857,106.81533015028157
1316.911224489796,103.65276669096211,107.29611151603498,104.4029112244898,107.32833856411258
1462.2788775510205,103.6836557755102,107.83530142857143,104.55315324489796,107.89684927503599
1607.646530612245,103.71389900874635,108.51433364431487,104.7375455393586,108.54341281910423
1753.0141836734695,103.75679077988339,109.20642907434402,104.9285212755102,109.25975698304579
1898.3818367346942,103.80975273469387,109.95328737414965,105.1490109387755,110.02456003947557
2043.7494897959186,103.8684640670554,110.75003287172012,105.38385626822156,110.82874415910436
2189.117142857143,103.93339580952382,111.57740076190477,105.63855980952381,111.67670769905828
2334.484795918367,104.0131687973761,112.49022477405248,105.92096959183672,112.57080856984682
2479.852448979592,104.10661943148689,113.43096714285714,106.21724470845481,113.52860340144743
2625.2201020408165,104.20497608163265,114.47143545578231,106.54700958503402,114.56494651082797
2770.587755102041,104.32278950437318,115.5951055393586,106.90836851311954,115.69053611156161
2915.9554081632655,104.44982504761904,116.76825047619047,107.29160550340136,116.92473597988955
3061.3230612244897,104.58927470845481,118.12566578717201,107.71392083090379,118.25937216714348
3206.6907142857144,104.74736081632653,119.50223704081634,108.16741234693878,119.67216103863403
3352.0583673469387,104.92074448979592,120.95834424489796,108.65701012244898,121.1382882670597
3497.4260204081634,105.11536388483965,122.483360787172,109.18415379008746,122.66896980541634
3642.793673469388,105.31948363265306,124.1298352244898,109.74293342857143,124.30864687242727
3788.1613265306123,105.54856227405247,126.07873781341108,110.36372596938776,126.07392737046719
3933.528979591837,105.80341096209912,128.0336412244898,111.02917440233237,127.97242878684992
4078.8966326530613,106.07979326530612,129.99760109523808,111.73448316326531,129.99680075213323
4224.264285714286,106.3762806122449,131.96644387755103,112.46994948979592,132.13686050188272
4369.631938775511,106.69647452380953,134.1139957346939,113.25466524489796,134.39602203119398
4514.999591836735,107.04542752186589,136.6445643148688,114.11185463556852,136.76457310073386
4660.36724489796,107.42585395043731,139.1814267857143,115.02138709183673,139.25147933562192
4805.734897959184,107.83520469387756,141.72363621768707,115.97834831292518,141.85868890901205
4951.102551020409,108.27803658892128,144.2710235787172,116.9730823250729,144.58385272883524
5096.470204081634,108.74839869387755,147.04335640816328,118.02527553741497,147.43829547784895
5241.8378571428575,109.25426647959183,150.18193091836736,119.13586887755103,150.4140925628876
5387.205510204082,109.79522125364431,153.31771886297378,120.30084565597667,153.51592109443854
5532.573163265307,110.36819753061225,156.45908520408165,121.52372920408163,156.73958111612
5677.940816326532,110.9750278425656,159.6112862973761,122.79161443148689,160.07670090918532
5823.308469387755,111.62281895918368,162.97061953061225,124.12540740816327,163.53165206786443
5968.67612244898,112.30947517492712,166.6247139358601,125.5367612244898,167.0902064275389
6114.043775510205,113.04308540087465,170.28396091107874,127.0118819606414,170.74754293740324
6259.4114285714295,113.81758247619048,173.95272876190478,128.5420826666667,174.49116676934136
6404.779081632654,114.6359917638484,177.62250112973763,130.12291126093294,178.30629357969613
6550.146734693878,115.50569997278912,181.41478140136056,131.767302122449,182.18628368676818
6695.514387755103,116.41984352040816,185.35967623906708,133.4737787682216,186.1160540311507
6840.882040816327,117.38384241982509,189.31014696793005,135.23169364431487,190.0872230919256
6986.249693877552,118.39056450340136,193.2700083197279,137.02107955782313,194.08801808573995
7131.617346938777,119.43747048104957,197.22532798833822,138.8252168367347,198.1065310922526
7276.985000000001,120.53441733333334,201.17032633333335,140.664208,202.13233191834652
7422.352653061225,121.6768212244898,205.12016862973763,142.54834915451897,206.15302473839324
7567.72030612245,122.86082539358601,209.07097973760935,144.47995839650147,210.15498100144805
7713.087959183675,124.09542897959184,213.02119248979594,146.45614130612248,214.12384262776393
7858.4556122448985,125.38010051020409,216.97093804664723,148.47237857142858,218.04841354120737
8003.823265306123,126.70969559183673,220.77218938775513,150.51816881632652,221.91255414154128
8149.190918367348,128.08505528425658,224.45125607871722,152.578785196793,225.71228248832978
8294.558571428572,129.50983153061225,228.12698102040818,154.66234510204083,229.43991689135518
8439.926224489796,130.9821759047619,231.80106927210883,156.77452287755105,233.09123247390053
8585.293877551021,132.49939241982509,235.4697670553936,158.91198804664725,236.66665897547284
8730.661530612246,134.04438965986395,238.8565536734694,161.01637117006803,240.15385970559495
8876.029183673469,135.6047433381924,242.03120513119532,163.06840857142856,243.54012487174305
9021.396836734693,137.19760783527695,245.18775988338191,165.1222836078717,246.79173764240537
9166.764489795918,138.82514658503402,248.33989727891156,167.19344005442176,249.87525955729285
9312.132142857143,140.48351964285715,251.48743137755102,169.28162091836734,252.77042757905926
9457.499795918367,142.17706427210885,254.26182972789115,171.35769710204082,255.45355606083376
9602.867448979592,143.89371403790088,256.8278757069971,173.4104919606414,258.0096849598861
9748.235102040817,145.6442833819242,259.3925764431487,175.45602250728862,260.5586526027786
9893.602755102042,147.4151536122449,261.95300848979593,177.50771893877553,263.1482037960085
10038.970408163266,149.21034650145774,264.5019821428572,179.5631529154519,265.6894202381558
10184.33806122449,151.03425957142858,266.6612868367347,181.58466524489796,268.06186124429223
10329.705714285714,152.8699936734694,268.6456993877551,183.5756993877551,270.24366547879873
10475.073367346939,154.72951472303205,270.6289295116618,185.55170998542275,272.2433803063156
10620.441020408163,156.5995411292517,272.60759787755103,187.5134057414966,274.0854505378247
10765.808673469388,158.48351275510203,274.5816891399417,189.47441709183676,275.8031888826005
10911.176326530613,160.38043733333333,276.2432141496599,191.39758242176873,277.4131351449499
11056.543979591837,162.28772087463557,277.78403635568515,193.29307173469388,278.9445578623705
11201.911632653062,164.19826717201167,279.26682430029155,195.16743527696795,280.41406446468517
11347.279285714287,166.11528657142858,280.6699291904762,197.01487095238096,281.82267331811187
11492.64693877551,168.03569169096207,282.0443854227405,198.8458472303207,283.15255392507964
11638.014591836734,169.9549926122449,283.23691478911564,200.63857899319729,284.37557967515517
11783.382244897959,171.78946504373178,284.40287097667635,202.3300827988338,285.4991397269908
11928.749897959184,173.5879808819242,285.4696421282799,203.96683814139942,286.53023446231623
12074.117551020408,175.37344195918368,286.4267601632653,205.5712930612245,287.4821735680176
12219.485204081633,177.15056927842565,287.3624048833819,207.15383935860058,288.37506515478924
12364.852857142858,178.92440485714286,288.196776,208.717154,289.218845956193
12510.220510204083,180.69124905247813,289.0158157361516,210.25861682215745,290.02204949510974
12655.588163265307,182.43905795918369,289.78399542274053,211.77799084548107,290.78417567070835
12800.95581632653,184.18346979591837,290.48938791836736,213.27341304761904,291.4952018050812
12946.323469387755,185.9191442419825,291.1854051749271,214.75070947521866,292.1393605834935
13091.69112244898,187.63675524489796,291.7382007823129,216.19839848299318,292.7013622193523
13237.058775510204,189.34154565597666,292.27707545189503,217.61542810495627,293.214484962508
13382.426428571429,191.03525056122447,292.7986658163265,219.01839770408162,293.71678656569986
13527.794081632654,192.7130917414966,293.294899877551,220.39658397278913,294.215081096898
13673.161734693878,194.37613411078718,293.7928402332361,221.75858480320701,294.67761519873886
13818.529387755103,196.0156977687075,294.17977640816326,223.0887017414966,295.07519862686974
13963.897040816328,197.6467025291545,294.5540209620991,224.39907336734694,295.4262789212581
14109.264693877552,199.26723516034986,294.9084999708455,225.68805871720116,295.75536505883366
14254.632346938775,200.8575803265306,295.2387666530612,226.9581891632653,296.0787175189472
14400.0,202.44,295.58,228.2,296.4
