Time (s),T_min (C),T_max (C),T_ave (C),Thermal_Input_C
156.47,100.0,100.72,100.08,102.17319444444443
301.8121428571429,100.0,101.7761529047619,100.24472109523809,104.19183531746032
447.1542857142857,100.0,102.96361114285715,100.46571590476191,106.21047619047619
592.4964285714286,100.0,104.24610100000001,100.73391600000001,108.22911706349205
737.8385714285715,100.00875790476191,105.56983295238095,101.04025295238095,110.24775793650794
883.1807142857144,100.02689476190476,106.93952809523809,101.37565833333333,112.2663988095238
1028.5228571428572,100.05440569029051,108.33960836404148,101.74727397377667,114.28503968253969
1173.865,100.09578833333333,109.75249233333334,102.14093733333334,116.30368055555556
1319.207142857143,100.14593,111.19707142857142,102.56896857142857,118.32232142857141
1464.5492857142858,100.21482957142857,112.6515660952381,103.01629433333333,120.3409623015873
1609.8914285714288,100.30248704761904,114.12459257142858,103.49153085714286,122.35960317460318
1755.2335714285716,100.40907128571428,115.60708242857143,103.98569414285714,124.37824404761903
1900.5757142857144,100.54447066666667,117.09917733333333,104.49906752380952,126.39688492063492
2045.9178571428574,100.69871238095237,118.60994571428571,105.04049333333333,128.4155257936508
2191.26,100.871712,120.121504,105.601072,130.43416666666667
2336.602142857143,101.06414980952381,121.6450690952381,106.18241538095238,132.45280753968254
2481.944285714286,101.28071085714285,123.16970942857144,106.77856228571429,134.4714484126984
2627.2864285714286,101.51741557142857,124.7117219047619,107.40007452380952,136.49008928571428
2772.6285714285714,101.78118190476191,126.2620380952381,108.03311619047618,138.50873015873017
2917.9707142857146,102.06447085714287,127.813119,108.69276528571429,140.52737103174601
3063.3128571428574,102.37498828571428,129.37312466666668,109.36224752380953,142.5460119047619
3208.655,102.69531566666666,130.933274,110.05063133333334,144.56465277777778
3353.997142857143,103.0538262857143,132.50296914285715,110.76765257142857,146.58329365079365
3499.339285714286,103.4242380952381,134.08552023809523,111.48990833333333,148.60193452380952
3644.6814285714286,103.816908,135.6674502857143,112.23854342857143,150.6205753968254
3790.023571428572,104.2283358095238,137.2587592857143,112.99655747619047,152.63921626984128
3935.3657142857146,104.6604459047619,138.85752285714284,113.76779923809524,154.65785714285715
4080.7078571428574,105.119079,140.4579002857143,114.56395014285715,156.67649801587302
4226.05,105.59647,142.06635333333332,115.37078333333334,158.6951388888889
4371.392142857144,106.09261890476192,143.6757991904762,116.19637442857143,160.7137797619048
4516.734285714287,106.60752571428571,145.29462400000003,117.04004114285715,162.73242063492063
4662.0764285714295,107.14119042857143,146.922456,117.89345857142858,164.75106150793653
4807.418571428572,107.69688514285714,148.550288,118.768906,166.7697023809524
4952.760714285715,108.2681269047619,150.18120404761905,119.65681642857143,168.78834325396824
5098.102857142858,108.864732,151.81872552380952,120.56071123809524,170.80698412698413
5243.445000000001,109.477632,153.45871,121.473985,172.825625
5388.787142857143,110.1042159047619,155.10807342857143,122.40094266666667,174.84426587301587
5534.129285714286,110.75525276190476,156.76497385714285,123.35051133333334,176.86290674603174
5679.47142857143,111.41873142857143,158.42340571428574,124.3046742857143,178.88154761904764
5824.813571428573,112.10790514285715,160.08877471428573,125.28270092857143,180.90018849206348
5970.1557142857155,112.80979114285715,161.7541625714286,126.26710257142858,182.9188293650794
6115.497857142858,113.5249892857143,163.43044195238096,127.26905180952382,184.93747023809527
6260.840000000001,114.25894533333334,165.10672133333335,128.28038,186.9561111111111
6406.182142857144,115.01165928571429,166.78631285714286,129.30439928571428,188.974751984127
6551.524285714287,115.78313114285714,168.4722817142857,130.34417485714286,190.9933928571429
6696.866428571429,116.5706698095238,170.16094166666667,131.39602047619047,193.01203373015875
6842.208571428572,117.369968,171.85660000000001,132.46424342857142,195.03067460317462
6987.550714285715,118.18698907142858,173.55329335714288,133.54288035714288,197.04931547619054
7132.892857142858,119.02307857142857,175.23597142857145,134.6304,198.976001984127
7278.2350000000015,119.87084533333335,176.24738166666668,135.64866866666668,198.91340277777775
7423.577142857144,120.73246285714286,176.25112761904762,136.52221657142857,196.8947619047619
7568.919285714287,121.6128382857143,175.73871,137.2654512857143,194.87612103174604
7714.26142857143,122.5042700952381,174.99883447619047,137.92259800000002,192.85748015873014
7859.603571428573,123.39924214285715,174.12305666666666,138.50825333333333,190.83883928571427
8004.945714285715,124.30036342857144,173.1541097142857,139.03148571428574,188.82019841269843
8150.287857142858,125.19856552380953,172.12596985714285,139.49844438095238,186.80155753968253
8295.630000000001,126.088693,171.042612,139.915651,184.78291666666664
8440.972142857143,126.96683285714285,169.9211172857143,140.28836461904763,182.76427579365077
8586.314285714287,127.82292285714286,168.76616476190475,140.62559142857143,180.7456349206349
8731.656428571428,128.65588642857142,167.58371728571427,140.920292,178.72699404761906
8876.998571428572,129.4653921904762,166.38251190476188,141.1774976190476,176.70835317460316
9022.340714285714,130.2467610952381,165.15815923809524,141.40656638095237,174.6897123015873
9167.682857142858,130.99999314285714,163.91382742857144,141.59934057142857,172.67107142857142
9313.025,131.72508833333333,162.65634833333334,141.75652499999998,170.65243055555555
9458.367142857143,132.4237755714286,161.38356914285714,141.8914937142857,168.63378968253966
9603.709285714287,133.0842014761905,160.09807766666665,141.9883255714286,166.6151488095238
9749.051428571429,133.71488609523809,158.79703714285714,142.05702057142858,164.59650793650795
9894.393571428573,134.3115742857143,157.48895785714285,142.1034382857143,162.57786706349205
10039.735714285714,134.87178595317727,156.16723793597706,142.12,160.55922619047618
10185.077857142858,135.40468028571428,154.8324837142857,142.10418442857144,158.54058531746028
10330.42,135.90806666666666,153.49037466666667,142.06519333333333,156.52194444444444
10475.762142857144,136.37393723809524,152.13888666666665,141.9981427142857,154.50330357142857
10621.104285714286,136.80880242857143,150.7780197142857,141.904427,152.4846626984127
10766.44642857143,137.2118869047619,149.40444047619047,141.79164285714285,150.46602182539684
10911.788571428571,137.5879977142857,148.02853485714286,141.64715885714284,148.44738095238097
11057.130714285715,137.92922961904762,146.63914514285713,141.47864314285712,146.42874007936507
11202.472857142859,138.23937723809524,145.24386057142854,141.284938,144.4100992063492
11347.815,138.521388,144.001601,141.069217,142.39145833333333
11493.157142857144,138.76945142857144,142.9821942857143,140.82892761904762,140.37281746031744
11638.499285714286,138.99099895238095,142.15100371428574,140.56600133333333,138.3541765873016
11783.84142857143,138.97064314285714,141.47825542857143,140.27912771428572,136.3355357142857
11929.183571428572,138.13548264285714,140.93117585714285,139.9763145,134.31689484126986
12074.525714285715,136.69264457142856,140.5160297142857,139.64344,132.29825396825396
12219.867857142857,135.2413214285714,140.20226428571428,139.28912595238094,130.2796130952381
12365.210000000001,133.78061933333333,139.977106,138.916054,128.2609722222222
12510.552142857143,132.31053828571427,139.83635828571428,138.51725399999998,126.24233134920635
12655.894285714287,130.8377379047619,139.7667019047619,138.09697676190476,124.22369047619048
12801.23642857143,129.35858842857144,139.7373018095238,137.65794161904762,122.20504960317459
12946.578571428572,127.87006,139.70584571428572,137.20014857142857,120.18640873015872
13091.920714285716,126.37501664285713,139.65563171428573,136.71786957142857,118.16776785714285
13237.262857142858,124.87361714285714,139.57124228571428,136.21495542857144,116.149126984127
13382.605000000001,123.36330799999999,139.46715633333332,135.694222,114.1304861111111
13527.947142857143,121.8436199047619,139.33618266666667,135.15473066666667,112.11184523809526
13673.289285714287,120.32237214285713,139.17707214285713,134.59648142857142,110.09320436507936
13818.631428571429,118.79361561904763,138.99733352380952,134.0194742857143,108.07456349206349
13963.973571428573,117.25548014285714,138.79163876190475,133.42370923809523,106.05592261904762
14109.315714285714,115.71485342857143,138.56469485714285,132.8091862857143,104.03728174603175
14254.657857142858,114.16436092857143,138.31241585714287,132.1759054285714,102.01864087301585
14400.0,112.62,138.04,131.52,100.0
